1,2,3,4,5,6,7,8,9,10,11,12,13,14,15,16,17,18,19,20,21,22,23,24,25,26,27,28,29,30,31,32,33,34,35,36,37,38,39,40,41,42,43,44,45,46,47,48,49,50,51,52,53,54,55,56,57,58,59,60,61,62,63,64,65,66,67,68,69,70,71,72,73,74,75,76,77,78,79,80,ѹ��
0.53333333,0.51111111,0.53333333,0.54444444,0.70555556,0.57500000,0.44444444,0.48888889,0.50000000,0.53888889,0.54722222,0.50694444,0.50902778,0.51006944,0.52170139,0.53862847,0.54709201,0.50687934,0.50899523,0.54338650,0.54947103,0.56362440,0.58181220,0.72423943,0.57323083,0.42222222,0.45555556,0.50555556,0.60833333,0.50416667,0.40000000,0.55555556,0.58888889,0.72777778,0.69722222,0.72638889,0.66319444,0.60937500,0.51579861,0.42222222,0.61111111,0.63888889,0.60833333,0.52638889,0.44444444,0.43333333,0.42222222,0.47777778,0.50555556,0.50833333,0.52083333,0.50486111,0.50798611,0.54288194,0.56032986,0.71349826,0.55674913,0.40000000,0.46666667,0.47777778,0.43888889,0.40000000,0.64444444,0.74444444,0.83888889,0.77500000,0.68750000,0.59930556,0.51111111,0.55184258,0.55184258,0.55184258,0.55184258,0.55184258,0.55184258,0.55184258,0.55184258,0.55184258,0.55184258,0.55184258,6
0.77777778,0.81111111,0.81666667,0.77500000,0.74305556,0.78263889,0.75798611,0.76788194,0.77282986,0.74197049,0.71542969,0.69104818,0.71219076,0.71165093,0.73360324,0.70013496,0.69451192,0.64725596,0.63473909,0.75070288,0.74201811,0.69323128,0.65772675,0.63997449,0.73109835,0.73221584,0.72166348,0.66083174,0.68597142,0.74298571,0.83815952,0.78574643,0.75953988,0.73532550,0.72321830,0.78383137,0.76969346,0.80706895,0.73686781,0.76843391,0.78421695,0.80321959,0.79049868,0.77302712,0.78651356,0.74881234,0.72996172,0.74275864,0.74915710,0.71902299,0.75951150,0.74642241,0.73333333,0.74189140,0.74189140,0.74189140,0.74189140,0.74189140,0.74189140,0.74189140,0.74189140,0.74189140,0.74189140,0.74189140,0.74189140,0.74189140,0.74189140,0.74189140,0.74189140,0.74189140,0.74189140,0.74189140,0.74189140,0.74189140,0.74189140,0.74189140,0.74189140,0.74189140,0.74189140,0.74189140,16
0.62222222,0.60000000,0.60000000,0.61111111,0.65000000,0.61388889,0.56250000,0.49236111,0.42222222,0.43333333,0.44444444,0.48888889,0.61111111,0.55000000,0.54166667,0.61527778,0.65208333,0.68159722,0.68524306,0.64262153,0.57686632,0.55509983,0.56643880,0.56099718,0.55827637,0.53469374,0.52290243,0.51700677,0.52517005,0.57369614,0.56462585,0.53786848,0.54671202,0.58446712,0.63667800,0.60722789,0.59250283,0.61847364,0.60923682,0.62684063,0.61342032,0.58448794,0.55891063,0.55723310,0.55639433,0.54486383,0.55020969,0.56399374,0.63755242,0.67433177,0.68161033,0.67413850,0.68151369,0.64075685,0.56482287,0.56018921,0.56898349,0.57338064,0.57557921,0.58778960,0.60500591,0.61361407,0.61791814,0.62007018,0.61003509,0.60501755,0.60000000,0.58445040,0.58445040,0.58445040,0.58445040,0.58445040,0.58445040,0.58445040,0.58445040,0.58445040,0.58445040,0.58445040,0.58445040,0.58445040,20
0.77777778,0.67777778,0.62777778,0.62500000,0.63472222,0.67291667,0.68090278,0.68489583,0.66467014,0.64344618,0.66616753,0.68863932,0.66654188,0.64438205,0.61107992,0.58331774,0.56943665,0.56249610,0.57013694,0.55173514,0.52031201,0.48237823,0.44444444,0.56666667,0.62777778,0.62500000,0.57916667,0.57847222,0.58923611,0.59461806,0.58619792,0.58198785,0.55766059,0.54549696,0.56163737,0.56970757,0.56263156,0.57020467,0.58510234,0.60366228,0.59072003,0.55091557,0.53101334,0.52106223,0.48275334,0.44444444,0.47777778,0.50555556,0.54166667,0.57083333,0.57430556,0.60937500,0.61579861,0.63012153,0.62617188,0.59086372,0.56209852,0.50327148,0.44444444,0.50000000,0.50555556,0.50833333,0.48750000,0.49930556,0.51631944,0.52482639,0.54019097,0.55555556,0.57569061,0.57569061,0.57569061,0.57569061,0.57569061,0.57569061,0.57569061,0.57569061,0.57569061,0.57569061,0.57569061,0.57569061,18
0.40000000,0.41111111,0.42222222,0.41111111,0.40000000,0.64444444,0.73333333,0.77777778,0.80000000,0.61111111,0.42222222,0.64444444,0.55555556,0.53333333,0.70000000,0.82777778,0.80277778,0.60138889,0.40000000,0.42222222,0.44444444,0.65555556,0.71666667,0.78055556,0.83472222,0.73958333,0.71423611,0.70156250,0.75078125,0.65316840,0.59325087,0.75218099,0.78720161,0.74915636,0.84124485,0.83173353,0.86031121,0.79682227,0.79841114,0.84365001,0.83293612,0.83869028,0.78601181,0.80411701,0.77983629,0.82325148,0.86718129,0.86692398,0.82235088,0.81117544,0.83892105,0.76390497,0.81528582,0.86666667,0.70154306,0.70154306,0.70154306,0.70154306,0.70154306,0.70154306,0.70154306,0.70154306,0.70154306,0.70154306,0.70154306,0.70154306,0.70154306,0.70154306,0.70154306,0.70154306,0.70154306,0.70154306,0.70154306,0.70154306,0.70154306,0.70154306,0.70154306,0.70154306,0.70154306,0.70154306,14
0.75555556,0.84444444,0.84444444,0.84444444,0.78888889,0.80555556,0.85833333,0.88472222,0.80902778,0.80451389,0.85781250,0.87335069,0.85889757,0.86278212,0.80916884,0.82680664,0.81340332,0.78447944,0.79223972,0.84056430,0.84250437,0.79902996,0.81062609,0.81642416,0.80821208,0.88188382,0.79649746,0.83158207,0.84912437,0.84678441,0.80116998,0.74502943,0.82807027,0.75847958,0.72368423,0.78406434,0.74758773,0.77379386,0.73134138,0.68789291,0.76616868,0.71641767,0.65820884,0.64021553,0.64232999,0.72116499,0.72724916,0.68584680,0.62070118,0.55555556,0.78314153,0.78314153,0.78314153,0.78314153,0.78314153,0.78314153,0.78314153,0.78314153,0.78314153,0.78314153,0.78314153,0.78314153,0.78314153,0.78314153,0.78314153,0.78314153,0.78314153,0.78314153,0.78314153,0.78314153,0.78314153,0.78314153,0.78314153,0.78314153,0.78314153,0.78314153,0.78314153,0.78314153,0.78314153,0.78314153,26
0.60000000,0.55555556,0.55555556,0.55555556,0.50000000,0.44444444,0.45555556,0.46111111,0.49722222,0.49305556,0.51319444,0.53437500,0.48940972,0.44444444,0.45555556,0.50555556,0.67500000,0.61527778,0.55208333,0.53159722,0.53246528,0.46623264,0.40000000,0.46666667,0.50000000,0.47222222,0.44444444,0.65555556,0.77222222,0.63055556,0.59305556,0.66319444,0.56493056,0.53802083,0.70234375,0.60672743,0.54780816,0.50723741,0.49806315,0.49347602,0.50229357,0.48448012,0.49779561,0.46000892,0.42222222,0.43333333,0.44444444,0.67777778,0.71666667,0.82500000,0.83472222,0.66180556,0.58645833,0.74878472,0.80772569,0.64830729,0.60193142,0.67874349,0.76159397,0.83635254,0.85150960,0.82575480,0.85732185,0.87310537,0.88888889,0.59102768,0.59102768,0.59102768,0.59102768,0.59102768,0.59102768,0.59102768,0.59102768,0.59102768,0.59102768,0.59102768,0.59102768,0.59102768,0.59102768,0.59102768,16
0.93333333,0.92222222,0.80555556,0.78055556,0.66805556,0.62291667,0.68923611,0.78906250,0.75008681,0.70837674,0.75418837,0.83264974,0.76076931,0.60260688,0.44444444,0.57777778,0.70000000,0.79444444,0.60833333,0.42222222,0.61111111,0.71666667,0.79166667,0.82916667,0.75902778,0.73506944,0.72309028,0.71710069,0.73632812,0.59038628,0.44444444,0.60000000,0.71111111,0.70000000,0.71666667,0.81388889,0.80694444,0.78125000,0.76840278,0.75086806,0.80876736,0.88216146,0.75219184,0.67609592,0.74915907,0.74124620,0.69284532,0.67975600,0.75098911,0.75327233,0.73219172,0.71054031,0.68888889,0.71864402,0.71864402,0.71864402,0.71864402,0.71864402,0.71864402,0.71864402,0.71864402,0.71864402,0.71864402,0.71864402,0.71864402,0.71864402,0.71864402,0.71864402,0.71864402,0.71864402,0.71864402,0.71864402,0.71864402,0.71864402,0.71864402,0.71864402,0.71864402,0.71864402,0.71864402,0.71864402,26
0.60000000,0.64444444,0.70000000,0.68333333,0.68611111,0.65416667,0.60486111,0.61354167,0.64010417,0.69782986,0.68224826,0.64112413,0.62056207,0.62139214,0.65514052,0.67201470,0.68045180,0.69578145,0.70344628,0.71838981,0.69252824,0.69070856,0.73424317,0.72267714,0.73911635,0.70289151,0.68477909,0.64238954,0.68786144,0.66615294,0.74418758,0.71653824,0.71382467,0.71246789,0.70067839,0.66145031,0.64183626,0.66536258,0.68823684,0.63300731,0.52761477,0.42222222,0.51111111,0.61111111,0.59444444,0.60833333,0.64861111,0.69097222,0.68993056,0.70052083,0.71692708,0.73624132,0.72367622,0.70628255,0.68647461,0.65434842,0.64939643,0.65803155,0.66666667,0.66540336,0.66540336,0.66540336,0.66540336,0.66540336,0.66540336,0.66540336,0.66540336,0.66540336,0.66540336,0.66540336,0.66540336,0.66540336,0.66540336,0.66540336,0.66540336,0.66540336,0.66540336,0.66540336,0.66540336,0.66540336,12
0.60000000,0.68888889,0.70000000,0.71666667,0.75833333,0.69027778,0.68958333,0.54479167,0.40000000,0.54444444,0.70555556,0.73055556,0.78750000,0.82708333,0.84687500,0.81232639,0.76171875,0.76974826,0.80709635,0.78132595,0.79066298,0.77310927,0.80877686,0.77105509,0.74108310,0.74831933,0.70749300,0.68707983,0.75465103,0.77732551,0.79977387,0.84433138,0.86661013,0.84441618,0.77776364,0.79999293,0.78888536,0.77222046,0.74166578,0.75972178,0.72430533,0.71770822,0.70329856,0.65164928,0.67026908,0.69069010,0.71201172,0.71156141,0.71133626,0.74455702,0.69450073,0.66947259,0.64444444,0.73138705,0.73138705,0.73138705,0.73138705,0.73138705,0.73138705,0.73138705,0.73138705,0.73138705,0.73138705,0.73138705,0.73138705,0.73138705,0.73138705,0.73138705,0.73138705,0.73138705,0.73138705,0.73138705,0.73138705,0.73138705,0.73138705,0.73138705,0.73138705,0.73138705,0.73138705,0.73138705,6
0.93333333,0.72222222,0.61666667,0.57500000,0.55416667,0.48819444,0.42222222,0.67777778,0.76111111,0.80277778,0.72361111,0.66180556,0.55312500,0.44444444,0.65555556,0.76111111,0.75833333,0.59027778,0.42222222,0.41111111,0.40000000,0.62222222,0.70000000,0.77222222,0.84166667,0.64305556,0.44444444,0.66666667,0.78888889,0.79444444,0.85277778,0.83750000,0.84097222,0.79826389,0.81024306,0.62734375,0.44444444,0.54444444,0.57222222,0.50833333,0.44444444,0.60000000,0.65555556,0.75000000,0.80833333,0.82638889,0.83541667,0.82881944,0.83663194,0.75164931,0.76471354,0.73791233,0.73562283,0.74558919,0.72835015,0.71111111,0.67510294,0.67510294,0.67510294,0.67510294,0.67510294,0.67510294,0.67510294,0.67510294,0.67510294,0.67510294,0.67510294,0.67510294,0.67510294,0.67510294,0.67510294,0.67510294,0.67510294,0.67510294,0.67510294,0.67510294,0.67510294,0.67510294,0.67510294,0.67510294,14
0.88888889,0.83333333,0.76111111,0.74722222,0.71805556,0.70347222,0.66284722,0.70920139,0.68793403,0.64396701,0.67753906,0.68321398,0.68605143,0.67635905,0.68262397,0.67464532,0.64843377,0.62421689,0.61210844,0.62827644,0.64747156,0.69040244,0.67853456,0.66148950,0.66407808,0.60981682,0.57157508,0.55245420,0.54289377,0.53811355,0.58016789,0.61230617,0.62837531,0.62529876,0.64598272,0.64521358,0.61149568,0.59463673,0.60842948,0.60421474,0.57988515,0.60105368,0.62274906,0.64470787,0.63346504,0.62784363,0.61392182,0.58473869,0.59236934,0.60729578,0.60364789,0.56849061,0.51757864,0.49212265,0.46828355,0.44444444,0.51111111,0.57777778,0.62222222,0.57777778,0.58888889,0.61666667,0.64444444,0.62863395,0.62863395,0.62863395,0.62863395,0.62863395,0.62863395,0.62863395,0.62863395,0.62863395,0.62863395,0.62863395,0.62863395,0.62863395,0.62863395,0.62863395,0.62863395,0.62863395,26
0.91111111,0.91111111,0.86666667,0.80000000,0.80000000,0.74444444,0.76111111,0.73611111,0.74583333,0.77291667,0.74201389,0.78211806,0.73550347,0.71219618,0.64498698,0.71138238,0.74458008,0.77229004,0.74170058,0.75973918,0.76875848,0.73993479,0.69218962,0.72387259,0.71749185,0.75874592,0.76826185,0.78413093,0.75873213,0.74603273,0.73968303,0.70317485,0.65158742,0.64801593,0.67956352,0.69533732,0.69211310,0.71272322,0.73413939,0.71151414,0.71131262,0.67787853,0.67227260,0.71391408,0.72362371,0.75070074,0.70868370,0.73211963,0.72161537,0.73858546,0.74707051,0.75131303,0.68676763,0.62222222,0.73666480,0.73666480,0.73666480,0.73666480,0.73666480,0.73666480,0.73666480,0.73666480,0.73666480,0.73666480,0.73666480,0.73666480,0.73666480,0.73666480,0.73666480,0.73666480,0.73666480,0.73666480,0.73666480,0.73666480,0.73666480,0.73666480,0.73666480,0.73666480,0.73666480,0.73666480,12
0.68888889,0.67777778,0.67222222,0.66944444,0.65694444,0.66180556,0.66423611,0.64322917,0.63272569,0.62747396,0.62484809,0.61242405,0.59510091,0.59755046,0.62099745,0.63272095,0.59413825,0.59706913,0.62075679,0.62148950,0.62185586,0.58870571,0.57213063,0.57495421,0.59858821,0.61040522,0.59409150,0.60815686,0.64852287,0.66870588,0.65657516,0.65050980,0.61414379,0.59596078,0.59798039,0.57676797,0.56616176,0.57196977,0.57487377,0.56521467,0.57149622,0.57463700,0.57620739,0.61032592,0.59405185,0.56369259,0.54851296,0.56314537,0.58157268,0.60189745,0.61205984,0.60602992,0.61412607,0.62928526,0.64797596,0.62398798,0.60088288,0.56710811,0.51688739,0.52511036,0.54033296,0.53683315,0.54619435,0.56198606,0.55877081,0.55555556,0.60298159,0.60298159,0.60298159,0.60298159,0.60298159,0.60298159,0.60298159,0.60298159,0.60298159,0.60298159,0.60298159,0.60298159,0.60298159,0.60298159,16
0.62222222,0.71111111,0.72222222,0.80555556,0.74722222,0.78472222,0.75902778,0.70173611,0.72864583,0.67543403,0.74882812,0.74108073,0.73720703,0.79082574,0.78430176,0.78103977,0.76829766,0.76192661,0.79207442,0.79603721,0.73135194,0.69900930,0.69394910,0.70253010,0.81793172,0.76452141,0.77114960,0.79668591,0.72056518,0.79361592,0.77458574,0.78729287,0.74920199,0.77460100,0.75396716,0.77698358,0.76626957,0.80535701,0.79156739,0.78467258,0.79233629,0.79616815,0.78697296,0.82681981,0.78007657,0.81226051,0.82835248,0.82528735,0.83486590,0.80632184,0.77777778,0.76632484,0.76632484,0.76632484,0.76632484,0.76632484,0.76632484,0.76632484,0.76632484,0.76632484,0.76632484,0.76632484,0.76632484,0.76632484,0.76632484,0.76632484,0.76632484,0.76632484,0.76632484,0.76632484,0.76632484,0.76632484,0.76632484,0.76632484,0.76632484,0.76632484,0.76632484,0.76632484,0.76632484,0.76632484,10
0.55555556,0.55555556,0.56666667,0.58333333,0.59166667,0.58472222,0.55902778,0.53506944,0.50086806,0.49487847,0.50299479,0.55149740,0.59797092,0.61009657,0.59393717,0.55252414,0.54292874,0.57146437,0.58573218,0.58175498,0.56865527,0.56210541,0.55883048,0.55719302,0.56748540,0.59485381,0.61964913,0.59871345,0.57713450,0.56634503,0.54983918,0.54158626,0.54857091,0.54095212,0.54825384,0.54079359,0.51484124,0.52408729,0.51759920,0.51435515,0.54606647,0.57303323,0.54207217,0.51548053,0.49107360,0.48998124,0.47832396,0.49471753,0.52513654,0.55145716,0.53128414,0.51008651,0.49948770,0.48307718,0.47487193,0.63743596,0.55205131,0.53158121,0.54356838,0.52733975,0.68589210,0.60961271,0.58258414,0.56906985,0.58453492,0.57004524,0.56280040,0.57028909,0.56292232,0.54812783,0.52961947,0.51111111,0.55159479,0.55159479,0.55159479,0.55159479,0.55159479,0.55159479,0.55159479,0.55159479,14
0.80000000,0.66666667,0.55555556,0.44444444,0.58888889,0.75000000,0.68611111,0.62083333,0.56597222,0.51631944,0.53593750,0.49019097,0.44444444,0.46666667,0.46666667,0.48888889,0.46666667,0.44444444,0.54444444,0.56111111,0.55833333,0.55694444,0.54513889,0.51701389,0.50295139,0.52925347,0.56462674,0.56009115,0.52449002,0.49557834,0.54778917,0.60722792,0.59250285,0.56291809,0.58145905,0.61295174,0.65092032,0.59212683,0.54050786,0.54803171,0.54068252,0.53700793,0.52405952,0.50647420,0.53101488,0.53217411,0.52164261,0.51637686,0.51374399,0.50131644,0.52843600,0.57532911,0.59877567,0.58827672,0.56080503,0.56929140,0.59575681,0.58676730,0.59338365,0.63002516,0.63723480,0.64083962,0.63153092,0.63798768,0.61899384,0.60949692,0.64919290,0.61348534,0.57777778,0.56468102,0.56468102,0.56468102,0.56468102,0.56468102,0.56468102,0.56468102,0.56468102,0.56468102,0.56468102,0.56468102,22
0.57777778,0.63333333,0.68333333,0.67500000,0.68194444,0.66319444,0.63159722,0.68246528,0.69678819,0.83728299,0.81864149,0.65376519,0.57132704,0.56344130,0.57060954,0.74086032,0.67043016,0.61299286,0.57316310,0.54213710,0.52662411,0.52997872,0.52054492,0.53805024,0.55791401,0.55673478,0.53392295,0.53362814,0.54459185,0.60562926,0.63614796,0.64029620,0.60903699,0.61562961,0.60781480,0.55946296,0.52417592,0.53986574,0.53659954,0.54607755,0.55081655,0.56429716,0.55992636,0.54662985,0.57331492,0.56443524,0.53777318,0.52444214,0.51777663,0.52555498,0.52944416,0.54249986,0.56013882,0.56895830,0.55114582,0.53112846,0.52111979,0.48278212,0.44444444,0.48888889,0.48888889,0.45555556,0.42222222,0.45555556,0.47222222,0.50277778,0.52916667,0.55555556,0.57220990,0.57220990,0.57220990,0.57220990,0.57220990,0.57220990,0.57220990,0.57220990,0.57220990,0.57220990,0.57220990,0.57220990,12
0.60000000,0.61111111,0.62777778,0.62500000,0.63472222,0.58402778,0.54756944,0.55156250,0.57578125,0.58789062,0.60505642,0.61363932,0.64015299,0.62007650,0.58781603,0.58279690,0.60250956,0.61236589,0.60618295,0.62531370,0.61265685,0.60632842,0.62538643,0.62380433,0.62301328,0.61150664,0.59464221,0.59732110,0.58754944,0.59377472,0.58577625,0.58177701,0.59088851,0.60655536,0.58105546,0.54608329,0.53970831,0.53652082,0.52381597,0.55079687,0.56428732,0.55992144,0.52440516,0.51775814,0.52554574,0.54055065,0.53694199,0.55735988,0.58979105,0.61711775,0.57522554,0.54316833,0.54936194,0.54134764,0.52622937,0.52978135,0.53155734,0.52133423,0.51622267,0.51366689,0.51238900,0.51175006,0.51143058,0.51127085,0.51119098,0.50003993,0.51668663,0.53612109,0.55555556,0.56968585,0.56968585,0.56968585,0.56968585,0.56968585,0.56968585,0.56968585,0.56968585,0.56968585,0.56968585,0.56968585,18
0.84444444,0.86666667,0.84444444,0.66666667,0.57777778,0.52222222,0.52777778,0.68611111,0.78750000,0.82708333,0.82465278,0.82343750,0.83394097,0.78363715,0.75848524,0.75702040,0.78962131,0.79481066,0.78629422,0.84870266,0.81324022,0.78439789,0.76997672,0.74054392,0.73693862,0.73513598,0.75645688,0.80045066,0.77800311,0.80011267,0.77783411,0.75558372,0.77779186,0.76667371,0.81667019,0.78611287,0.84861199,0.80208377,0.77881966,0.73385428,0.72248269,0.78346357,0.80284290,0.80142145,0.72293295,0.69479981,0.73628879,0.71258884,0.55629442,0.40000000,0.56666667,0.73333333,0.74891741,0.74891741,0.74891741,0.74891741,0.74891741,0.74891741,0.74891741,0.74891741,0.74891741,0.74891741,0.74891741,0.74891741,0.74891741,0.74891741,0.74891741,0.74891741,0.74891741,0.74891741,0.74891741,0.74891741,0.74891741,0.74891741,0.74891741,0.74891741,0.74891741,0.74891741,0.74891741,0.74891741,14
0.62222222,0.62222222,0.63333333,0.61666667,0.60833333,0.60416667,0.62430556,0.63437500,0.65052083,0.66970486,0.69040799,0.65631510,0.61704644,0.63074544,0.59315050,0.55213081,0.58717651,0.62692159,0.66901635,0.63450818,0.61725409,0.67529371,0.65986908,0.67437898,0.65941171,0.60748363,0.57040848,0.55187091,0.56482434,0.56018995,0.58009497,0.65671415,0.67280152,0.66973409,0.66820038,0.68965575,0.64482787,0.64463616,0.64454030,0.62227015,0.60002396,0.60001198,0.62222821,0.65555855,0.62777928,0.59166742,0.55138926,0.58680574,0.67118065,0.68003477,0.65112850,0.65889758,0.64055990,0.63139106,0.61569553,0.58562554,0.58170166,0.57973972,0.55653653,0.54493493,0.57246746,0.60845595,0.64444444,0.62279347,0.62279347,0.62279347,0.62279347,0.62279347,0.62279347,0.62279347,0.62279347,0.62279347,0.62279347,0.62279347,0.62279347,0.62279347,0.62279347,0.62279347,0.62279347,0.62279347,18
0.68888889,0.65555556,0.68333333,0.67500000,0.72638889,0.66319444,0.72048611,0.69357639,0.73567708,0.72339410,0.67280816,0.65862630,0.66264648,0.66465658,0.69899495,0.68283081,0.68585985,0.67626326,0.64924274,0.66906581,0.62342180,0.61171090,0.66141100,0.73070550,0.70979720,0.73267638,0.73300485,0.71094687,0.66658455,0.63329227,0.63886836,0.65276751,0.63749487,0.67430299,0.63715149,0.55190908,0.54262121,0.59353283,0.59676641,0.62060543,0.66585827,0.64404025,0.66646457,0.63323228,0.61661614,0.57497474,0.58748737,0.63818813,0.69687184,0.67065814,0.74644018,0.70655342,0.69772116,0.71552725,0.66887473,0.66777070,0.67832979,0.65027601,0.62222222,0.66430794,0.66430794,0.66430794,0.66430794,0.66430794,0.66430794,0.66430794,0.66430794,0.66430794,0.66430794,0.66430794,0.66430794,0.66430794,0.66430794,0.66430794,0.66430794,0.66430794,0.66430794,0.66430794,0.66430794,0.66430794,18
0.55555556,0.70000000,0.77222222,0.81944444,0.79861111,0.78819444,0.70520833,0.77482639,0.75407986,0.76592882,0.73851997,0.73592665,0.70129666,0.65064833,0.66976861,0.69043986,0.70077549,0.68372108,0.69741609,0.71537471,0.66879847,0.65662146,0.66164406,0.67526648,0.69318879,0.73548329,0.68996386,0.67831527,0.67249097,0.72513437,0.64034496,0.59795026,0.61008624,0.64948756,0.62474378,0.55681634,0.52285261,0.52809297,0.56404649,0.63757880,0.59656718,0.59828359,0.62136402,0.64401534,0.64422989,0.59989272,0.56661303,0.59441763,0.60831992,0.64860441,0.66874665,0.72326221,0.66163111,0.59748222,0.54318555,0.50492611,0.51912972,0.58178708,0.60200465,0.62222222,0.65589252,0.65589252,0.65589252,0.65589252,0.65589252,0.65589252,0.65589252,0.65589252,0.65589252,0.65589252,0.65589252,0.65589252,0.65589252,0.65589252,0.65589252,0.65589252,0.65589252,0.65589252,0.65589252,0.65589252,14
0.42222222,0.53333333,0.55555556,0.60000000,0.58888889,0.52777778,0.51944444,0.59305556,0.58541667,0.61493056,0.60746528,0.61484375,0.60742188,0.64815538,0.61296658,0.65092773,0.62546387,0.69050971,0.63414374,0.57262743,0.55298038,0.55426797,0.55491176,0.56634477,0.56095016,0.52491953,0.51801532,0.57011877,0.56283716,0.51475191,0.52404262,0.57313242,0.58656621,0.59328311,0.58553044,0.62609855,0.60193817,0.56763575,0.56159565,0.53635338,0.53484336,0.57853279,0.58926639,0.59463320,0.59731660,0.56532497,0.54932915,0.60799791,0.59288784,0.58533281,0.58155529,0.51299987,0.44444444,0.64444444,0.60000000,0.56666667,0.55000000,0.55277778,0.49861111,0.44444444,0.61111111,0.57222222,0.54166667,0.55972222,0.55763889,0.52326389,0.50607639,0.49748264,0.48888889,0.56653488,0.56653488,0.56653488,0.56653488,0.56653488,0.56653488,0.56653488,0.56653488,0.56653488,0.56653488,0.56653488,26
0.55555556,0.62222222,0.74444444,0.79444444,0.80833333,0.82638889,0.82430556,0.83437500,0.81718750,0.83081597,0.72651910,0.70770399,0.73162977,0.73248155,0.77735189,0.79978706,0.75544908,0.75550232,0.74441783,0.78332002,0.74721557,0.75138556,0.68680389,0.73229083,0.72170097,0.76085049,0.78042524,0.75687929,0.80066187,0.77810871,0.80016547,0.73341607,0.74448581,0.79446513,0.76389923,0.72639406,0.80764147,0.79270963,0.71857704,0.67039963,0.67964426,0.65093324,0.69213329,0.71273331,0.68969999,0.71151666,0.70020277,0.67232361,0.64727292,0.64585868,0.63404045,0.65035356,0.66666667,0.73573756,0.73573756,0.73573756,0.73573756,0.73573756,0.73573756,0.73573756,0.73573756,0.73573756,0.73573756,0.73573756,0.73573756,0.73573756,0.73573756,0.73573756,0.73573756,0.73573756,0.73573756,0.73573756,0.73573756,0.73573756,0.73573756,0.73573756,0.73573756,0.73573756,0.73573756,0.73573756,10
0.66666667,0.72222222,0.57222222,0.42222222,0.45555556,0.50555556,0.59722222,0.68750000,0.78819444,0.72743056,0.70815972,0.74296875,0.73815104,0.71351997,0.70120443,0.69504666,0.69196777,0.75709500,0.71188083,0.75594042,0.72241465,0.72787399,0.74171477,0.59307961,0.44444444,0.63333333,0.71666667,0.76944444,0.82916667,0.88125000,0.86284722,0.84253472,0.78793403,0.80507812,0.76920573,0.76238064,0.74785699,0.72948405,0.74251980,0.74903768,0.75229662,0.77614831,0.76585193,0.77181485,0.75257409,0.73184260,0.74369908,0.73851621,0.76925810,0.79574016,0.82009230,0.73226837,0.64444444,0.71723662,0.71723662,0.71723662,0.71723662,0.71723662,0.71723662,0.71723662,0.71723662,0.71723662,0.71723662,0.71723662,0.71723662,0.71723662,0.71723662,0.71723662,0.71723662,0.71723662,0.71723662,0.71723662,0.71723662,0.71723662,0.71723662,0.71723662,0.71723662,0.71723662,0.71723662,0.71723662,18
0.53333333,0.53333333,0.54444444,0.55000000,0.56388889,0.55972222,0.54652778,0.51770833,0.54774306,0.58498264,0.60360243,0.57957899,0.58978950,0.75045030,0.73078071,0.69872369,0.64936184,0.63579203,0.67345157,0.78117023,0.65725178,0.60640367,0.52542406,0.44444444,0.47777778,0.48333333,0.51944444,0.52638889,0.52986111,0.48715278,0.44444444,0.45555556,0.46111111,0.47500000,0.45972222,0.44444444,0.52222222,0.57222222,0.49722222,0.42222222,0.51111111,0.55555556,0.53333333,0.61111111,0.62777778,0.62500000,0.59027778,0.59513889,0.59756944,0.54322917,0.51605903,0.51358507,0.50123698,0.52839627,0.49753147,0.53765462,0.62438287,0.67885810,0.73942905,0.64749230,0.60152393,0.66742863,0.62260320,0.51130160,0.40000000,0.43333333,0.46111111,0.49722222,0.53333333,0.55780611,0.55780611,0.55780611,0.55780611,0.55780611,0.55780611,0.55780611,0.55780611,0.55780611,0.55780611,0.55780611,14
0.68888889,0.75555556,0.61111111,0.56111111,0.62500000,0.62361111,0.66736111,0.70034722,0.73906250,0.73619792,0.71254340,0.71182726,0.72258030,0.77240126,0.77508952,0.78754476,0.82710571,0.78021952,0.76788754,0.72838821,0.66419411,0.62098594,0.62160408,0.68857982,0.79984547,0.79992273,0.78885026,0.78331402,0.79165701,0.81805073,0.77569203,0.77673490,0.71058967,0.66640595,0.67764742,0.70549038,0.71941185,0.71526148,0.69096407,0.71214870,0.71162991,0.73359273,0.75568525,0.77784263,0.74447687,0.67223843,0.65834144,0.68472628,0.68680758,0.78784824,0.73836856,0.72473984,0.70681436,0.68888889,0.72024418,0.72024418,0.72024418,0.72024418,0.72024418,0.72024418,0.72024418,0.72024418,0.72024418,0.72024418,0.72024418,0.72024418,0.72024418,0.72024418,0.72024418,0.72024418,0.72024418,0.72024418,0.72024418,0.72024418,0.72024418,0.72024418,0.72024418,0.72024418,0.72024418,0.72024418,2
0.66666667,0.55555556,0.44444444,0.67777778,0.78333333,0.83611111,0.80694444,0.83680556,0.87395833,0.85920139,0.86293403,0.65368924,0.44444444,0.62222222,0.71111111,0.77777778,0.78888889,0.81666667,0.80833333,0.77083333,0.76319444,0.71493056,0.76857639,0.70651042,0.76436632,0.71551649,0.75775825,0.72332357,0.66166178,0.63083089,0.65985989,0.65215217,0.69274275,0.75748249,0.68985235,0.61159284,0.59468531,0.64178710,0.68756022,0.72155789,0.66077894,0.61927836,0.63186140,0.78259737,0.75796535,0.82342712,0.80060245,0.83363456,0.77237283,0.79729753,0.74309321,0.73821327,0.72466219,0.71111111,0.72056551,0.72056551,0.72056551,0.72056551,0.72056551,0.72056551,0.72056551,0.72056551,0.72056551,0.72056551,0.72056551,0.72056551,0.72056551,0.72056551,0.72056551,0.72056551,0.72056551,0.72056551,0.72056551,0.72056551,0.72056551,0.72056551,0.72056551,0.72056551,0.72056551,0.72056551,16
0.71111111,0.72222222,0.70555556,0.70833333,0.72083333,0.70486111,0.70798611,0.69843750,0.69366319,0.70238715,0.66230469,0.59781901,0.56557617,0.61612142,0.67472738,0.67069702,0.66868184,0.65656314,0.62828157,0.59191856,0.57373706,0.56464631,0.57121204,0.58560602,0.63724746,0.66306817,0.67597853,0.77132260,0.75232797,0.77616398,0.71030421,0.71070766,0.72202050,0.72767692,0.68606068,0.73191923,0.74373739,0.67186870,0.60260101,0.55685606,0.56731692,0.59476957,0.65294034,0.64869239,0.73545731,0.71217310,0.72275322,0.69470994,0.71402164,0.67923304,0.66183874,0.61980826,0.60990413,0.64939651,0.66914270,0.64568246,0.65617456,0.61697617,0.57777778,0.66562564,0.66562564,0.66562564,0.66562564,0.66562564,0.66562564,0.66562564,0.66562564,0.66562564,0.66562564,0.66562564,0.66562564,0.66562564,0.66562564,0.66562564,0.66562564,0.66562564,0.66562564,0.66562564,0.66562564,0.66562564,12
0.57777778,0.42222222,0.65555556,0.79444444,0.79722222,0.85416667,0.67152778,0.60243056,0.63454861,0.55060764,0.51974826,0.52654080,0.52993707,0.46496853,0.40000000,0.64444444,0.53333333,0.42222222,0.61111111,0.77222222,0.77500000,0.80972222,0.87152778,0.81354167,0.88454861,0.90894097,0.83224826,0.82723524,0.89139540,0.86791992,0.64507107,0.42222222,0.65555556,0.79444444,0.80833333,0.81527778,0.76319444,0.82604167,0.81302083,0.82873264,0.83658854,0.77384983,0.84248047,0.74346246,0.78284234,0.72475450,0.76237725,0.73674418,0.69059431,0.67863049,0.63931524,0.60854651,0.59316214,0.57435885,0.55555556,0.69785942,0.69785942,0.69785942,0.69785942,0.69785942,0.69785942,0.69785942,0.69785942,0.69785942,0.69785942,0.69785942,0.69785942,0.69785942,0.69785942,0.69785942,0.69785942,0.69785942,0.69785942,0.69785942,0.69785942,0.69785942,0.69785942,0.69785942,0.69785942,0.69785942,16
0.77777778,0.80000000,0.80000000,0.75555556,0.74444444,0.71666667,0.70277778,0.71805556,0.75902778,0.74618056,0.77309028,0.77543403,0.70993924,0.69941406,0.70526259,0.73040907,0.72076009,0.73815782,0.71352336,0.70120612,0.69504751,0.73641264,0.73487299,0.72299205,0.66149602,0.63074801,0.68204067,0.64102034,0.60939906,0.56025508,0.52457199,0.47339710,0.42222222,0.48888889,0.55555556,0.61111111,0.63888889,0.67500000,0.67083333,0.62430556,0.58993056,0.62829861,0.64748264,0.65707465,0.70631510,0.67537977,0.67102322,0.71328939,0.70108914,0.73943346,0.68082784,0.66263614,0.69798474,0.66010348,0.67449618,0.64835920,0.61306849,0.57777778,0.67398814,0.67398814,0.67398814,0.67398814,0.67398814,0.67398814,0.67398814,0.67398814,0.67398814,0.67398814,0.67398814,0.67398814,0.67398814,0.67398814,0.67398814,0.67398814,0.67398814,0.67398814,0.67398814,0.67398814,0.67398814,0.67398814,14
0.51111111,0.55555556,0.72222222,0.71666667,0.60277778,0.54583333,0.52847222,0.51979167,0.48211806,0.44444444,0.45555556,0.48333333,0.46388889,0.44444444,0.47777778,0.46111111,0.44444444,0.48888889,0.51111111,0.53333333,0.46666667,0.40000000,0.67777778,0.76111111,0.74722222,0.82916667,0.85902778,0.84062500,0.78697917,0.80460069,0.78007812,0.73448351,0.82279731,0.83362088,0.80569933,0.80284966,0.73475817,0.64515686,0.60035621,0.63351144,0.70564461,0.68615564,0.80974449,0.67153891,0.58021390,0.59010695,0.59505347,0.53086007,0.54320781,0.73827057,0.74691306,0.80678987,0.84783938,0.85725302,0.67307096,0.58097992,0.73493441,0.58968942,0.44444444,0.65555556,0.86666667,0.64285744,0.64285744,0.64285744,0.64285744,0.64285744,0.64285744,0.64285744,0.64285744,0.64285744,0.64285744,0.64285744,0.64285744,0.64285744,0.64285744,0.64285744,0.64285744,0.64285744,0.64285744,0.64285744,22
0.86666667,0.88888889,0.85555556,0.90555556,0.88611111,0.83194444,0.84930556,0.83576389,0.82899306,0.81449653,0.81835938,0.82029080,0.78792318,0.88285048,0.77475857,0.84293484,0.81035631,0.83851149,0.83036686,0.84851676,0.90203616,0.86212919,0.84217571,0.79886563,0.82165504,0.77749419,0.84430265,0.85548466,0.78329788,0.83609339,0.64026892,0.44444444,0.45555556,0.50555556,0.66388889,0.77638889,0.83263889,0.86076389,0.81927083,0.80963542,0.73815104,0.74685330,0.84009332,0.76449110,0.71557888,0.69112278,0.72333917,0.77278069,0.82222222,0.79111690,0.79111690,0.79111690,0.79111690,0.79111690,0.79111690,0.79111690,0.79111690,0.79111690,0.79111690,0.79111690,0.79111690,0.79111690,0.79111690,0.79111690,0.79111690,0.79111690,0.79111690,0.79111690,0.79111690,0.79111690,0.79111690,0.79111690,0.79111690,0.79111690,0.79111690,0.79111690,0.79111690,0.79111690,0.79111690,0.79111690,4
0.64444444,0.66666667,0.66666667,0.67777778,0.70555556,0.66388889,0.65416667,0.67152778,0.69131944,0.66788194,0.67838542,0.66141493,0.61959635,0.63202040,0.68267687,0.69689399,0.74844699,0.71866794,0.72600064,0.68522254,0.67594460,0.62686119,0.59120837,0.57338196,0.57557987,0.61001216,0.60500608,0.61361415,0.64014041,0.62007020,0.57670177,0.57723977,0.64417544,0.66653217,0.67771053,0.67218860,0.65831652,0.64026937,0.65346802,0.66006734,0.64114478,0.62057239,0.61028620,0.60514310,0.61368266,0.58461911,0.60342067,0.60171033,0.57863294,0.57820536,0.58910268,0.57232912,0.54172011,0.54863784,0.57431892,0.56493724,0.54913528,0.56345653,0.55950604,0.54641969,0.52876540,0.51993826,0.51111111,0.62419851,0.62419851,0.62419851,0.62419851,0.62419851,0.62419851,0.62419851,0.62419851,0.62419851,0.62419851,0.62419851,0.62419851,0.62419851,0.62419851,0.62419851,0.62419851,0.62419851,0
0.40000000,0.62222222,0.58888889,0.56111111,0.56944444,0.49583333,0.42222222,0.48888889,0.52222222,0.51666667,0.51388889,0.51250000,0.51180556,0.48923611,0.51128472,0.47786458,0.44444444,0.47777778,0.49444444,0.53611111,0.54583333,0.52847222,0.49756944,0.52656250,0.52994792,0.49830729,0.51582031,0.49124349,0.50117730,0.46169976,0.42222222,0.43333333,0.44444444,0.45555556,0.47222222,0.55833333,0.67916667,0.78402778,0.75868056,0.84600694,0.85633681,0.91705729,0.82519531,0.63481988,0.44444444,0.44444444,0.44444444,0.44444444,0.44444444,0.43333333,0.42222222,0.46666667,0.50000000,0.70555556,0.78611111,0.84861111,0.63541667,0.42222222,0.62222222,0.70000000,0.72777778,0.80833333,0.82638889,0.80208333,0.62326389,0.44444444,0.48888889,0.56457698,0.56457698,0.56457698,0.56457698,0.56457698,0.56457698,0.56457698,0.56457698,0.56457698,0.56457698,0.56457698,0.56457698,0.56457698,0
0.64444444,0.77777778,0.81111111,0.83888889,0.80833333,0.84861111,0.83541667,0.79548611,0.81996528,0.80998264,0.84943576,0.82471788,0.76791450,0.80617947,0.68086751,0.61821153,0.70910577,0.72121955,0.76060978,0.82474933,0.80126355,0.77840956,0.75587144,0.67793572,0.77230119,0.79726171,0.82085308,0.82153765,0.73299105,0.64427330,0.62213665,0.64440166,0.63331194,0.80554486,0.78055021,0.81249733,0.81735977,0.81979100,0.77656217,0.71050331,0.64414054,0.63318138,0.63881291,0.71940646,0.67081434,0.61318495,0.61770358,0.67551846,0.67109256,0.67999073,0.68443981,0.68666435,0.62110995,0.55555556,0.73500002,0.73500002,0.73500002,0.73500002,0.73500002,0.73500002,0.73500002,0.73500002,0.73500002,0.73500002,0.73500002,0.73500002,0.73500002,0.73500002,0.73500002,0.73500002,0.73500002,0.73500002,0.73500002,0.73500002,0.73500002,0.73500002,0.73500002,0.73500002,0.73500002,0.73500002,2
0.82222222,0.85555556,0.86111111,0.79722222,0.87638889,0.80486111,0.85798611,0.88454861,0.85338542,0.86002604,0.83001302,0.82611762,0.84639214,0.82319607,0.82270915,0.82246568,0.80012173,0.75561642,0.74447488,0.78334855,0.76945205,0.79583714,0.75347412,0.82118151,0.76614631,0.83862871,0.84153658,0.62076829,0.40000000,0.58888889,0.77222222,0.79722222,0.84305556,0.82152778,0.76631944,0.83871528,0.81935764,0.82078993,0.82150608,0.77741970,0.79982096,0.79991048,0.81106635,0.84997762,0.85832214,0.81804996,0.72013609,0.63784582,0.53003402,0.42222222,0.78098395,0.78098395,0.78098395,0.78098395,0.78098395,0.78098395,0.78098395,0.78098395,0.78098395,0.78098395,0.78098395,0.78098395,0.78098395,0.78098395,0.78098395,0.78098395,0.78098395,0.78098395,0.78098395,0.78098395,0.78098395,0.78098395,0.78098395,0.78098395,0.78098395,0.78098395,0.78098395,0.78098395,0.78098395,0.78098395,8
0.80000000,0.81111111,0.86111111,0.86388889,0.87638889,0.86041667,0.66354167,0.58732639,0.66032986,0.78572049,0.80397135,0.82420790,0.86765951,0.80049642,0.76691488,0.76123522,0.82506205,0.79030880,0.81737662,0.76424387,0.75989971,0.81328319,0.80664159,0.80332080,0.82388262,0.78971909,0.79485954,0.77520755,0.77649266,0.76602411,0.72745650,0.76372825,0.69297524,0.71315428,0.75657714,0.76717746,0.83914429,0.83068325,0.81534163,0.72989304,0.64272430,0.64358437,0.68845885,0.76645165,0.77211471,0.83050180,0.74858423,0.82984767,0.80381273,0.77777778,0.77681263,0.77681263,0.77681263,0.77681263,0.77681263,0.77681263,0.77681263,0.77681263,0.77681263,0.77681263,0.77681263,0.77681263,0.77681263,0.77681263,0.77681263,0.77681263,0.77681263,0.77681263,0.77681263,0.77681263,0.77681263,0.77681263,0.77681263,0.77681263,0.77681263,0.77681263,0.77681263,0.77681263,0.77681263,0.77681263,4
0.53333333,0.63333333,0.63888889,0.64166667,0.63194444,0.62708333,0.63576389,0.64010417,0.63116319,0.67113715,0.66890191,0.65667318,0.61722548,0.60861274,0.61541748,0.69659763,0.68163215,0.65192719,0.61485248,0.64075957,0.67593534,0.62685656,0.65787272,0.65115858,0.62557929,0.61278965,0.62861705,0.64764186,0.67937648,0.70635491,0.68651079,0.64325539,0.59940547,0.58859163,0.64985137,0.63603680,0.61801840,0.60900920,0.59339349,0.60780786,0.61501504,0.58528530,0.57042043,0.56298799,0.58149400,0.57963589,0.57870683,0.57824230,0.55578782,0.54456058,0.55005807,0.55280681,0.54307007,0.51597948,0.50243418,0.51788376,0.53671966,0.56835983,0.62862436,0.64764551,0.63493387,0.59524471,0.54206680,0.51547784,0.48888889,0.60882171,0.60882171,0.60882171,0.60882171,0.60882171,0.60882171,0.60882171,0.60882171,0.60882171,0.60882171,0.60882171,0.60882171,0.60882171,0.60882171,0.60882171,16
0.66666667,0.70000000,0.63888889,0.61944444,0.69861111,0.74930556,0.67465278,0.61510417,0.59644097,0.66488715,0.74355469,0.68288845,0.70811089,0.68738878,0.67702772,0.70518053,0.71925693,0.70407291,0.67425868,0.69268489,0.67967578,0.68428233,0.68658561,0.68773725,0.72164640,0.72748987,0.76374493,0.73742802,0.73538068,0.74546812,0.70606739,0.63081147,0.61540574,0.67436954,0.68162921,0.67414794,0.68151841,0.69631476,0.65926849,0.67407869,0.69259490,0.75740856,0.72314873,0.68379658,0.64189829,0.64317137,0.64380791,0.67745951,0.63872975,0.63047599,0.61523799,0.64095233,0.64269839,0.59912697,0.59956349,0.63311508,0.61655754,0.60000000,0.67519345,0.67519345,0.67519345,0.67519345,0.67519345,0.67519345,0.67519345,0.67519345,0.67519345,0.67519345,0.67519345,0.67519345,0.67519345,0.67519345,0.67519345,0.67519345,0.67519345,0.67519345,0.67519345,0.67519345,0.67519345,0.67519345,6
0.55555556,0.54444444,0.47222222,0.40000000,0.62222222,0.51111111,0.40000000,0.56666667,0.50555556,0.44444444,0.43333333,0.42222222,0.43333333,0.44444444,0.66666667,0.53333333,0.40000000,0.64444444,0.75555556,0.83333333,0.86111111,0.85277778,0.81527778,0.82986111,0.83715278,0.79635417,0.85373264,0.87131076,0.85787760,0.74004991,0.59224718,0.44444444,0.67777778,0.72777778,0.59722222,0.54305556,0.66041667,0.68576389,0.77621528,0.79921875,0.81072049,0.71647135,0.75823568,0.76800673,0.82844781,0.64755724,0.54600084,0.44444444,0.65555556,0.73888889,0.59166667,0.44444444,0.65555556,0.71666667,0.70277778,0.56250000,0.42222222,0.55555556,0.68888889,0.63835832,0.63835832,0.63835832,0.63835832,0.63835832,0.63835832,0.63835832,0.63835832,0.63835832,0.63835832,0.63835832,0.63835832,0.63835832,0.63835832,0.63835832,0.63835832,0.63835832,0.63835832,0.63835832,0.63835832,0.63835832,6
0.93333333,0.92222222,0.87222222,0.89166667,0.87916667,0.83958333,0.84201389,0.84322917,0.86605903,0.82191840,0.79984809,0.72214627,0.82773980,0.85831434,0.64026828,0.42222222,0.67777778,0.72777778,0.58611111,0.44444444,0.42222222,0.40000000,0.65555556,0.73888889,0.58055556,0.42222222,0.62222222,0.75555556,0.82222222,0.82222222,0.80000000,0.80000000,0.86666667,0.84444444,0.88888889,0.87777778,0.87222222,0.88055556,0.86250000,0.85347222,0.81562500,0.80781250,0.82612847,0.83528646,0.88430990,0.86437717,0.80996636,0.80498318,0.73582492,0.66666667,0.76514480,0.76514480,0.76514480,0.76514480,0.76514480,0.76514480,0.76514480,0.76514480,0.76514480,0.76514480,0.76514480,0.76514480,0.76514480,0.76514480,0.76514480,0.76514480,0.76514480,0.76514480,0.76514480,0.76514480,0.76514480,0.76514480,0.76514480,0.76514480,0.76514480,0.76514480,0.76514480,0.76514480,0.76514480,0.76514480,4
0.75555556,0.72222222,0.72777778,0.71944444,0.73750000,0.70208333,0.70659722,0.70885417,0.68776042,0.68832465,0.67749566,0.68319227,0.65270725,0.64857585,0.67984348,0.68436618,0.70884976,0.65442488,0.61610133,0.61916178,0.60958089,0.61590155,0.68572856,0.69841983,0.70476547,0.69682718,0.69285803,0.64642902,0.65654784,0.69494059,0.69191474,0.63484626,0.61742313,0.63093379,0.69324467,0.72440011,0.73997783,0.72554447,0.71832779,0.70360834,0.64069306,0.58701320,0.63795104,0.66341997,0.65393221,0.67141055,0.65792750,0.70674153,0.68670410,0.67668538,0.70500936,0.66361579,0.73180789,0.66590395,0.62184086,0.68869821,0.65546022,0.62222222,0.67758785,0.67758785,0.67758785,0.67758785,0.67758785,0.67758785,0.67758785,0.67758785,0.67758785,0.67758785,0.67758785,0.67758785,0.67758785,0.67758785,0.67758785,0.67758785,0.67758785,0.67758785,0.67758785,0.67758785,0.67758785,0.67758785,4
0.64444444,0.67777778,0.73888889,0.74722222,0.76250000,0.77013889,0.72951389,0.75364583,0.72126736,0.74952257,0.74142795,0.78182509,0.77980143,0.77878961,0.75606147,0.81136407,0.76123759,0.72506324,0.78475384,0.82571025,0.82396624,0.80087201,0.80043600,0.82244022,0.83344233,0.80561006,0.82502725,0.83473585,0.77292348,0.78646174,0.83767531,0.81883766,0.78719661,0.84915386,0.76902137,0.81784402,0.75336645,0.79890545,0.79945272,0.78861525,0.78319651,0.73604270,0.72357691,0.76178845,0.73644978,0.75711378,0.74522356,0.73927844,0.72519478,0.76259739,0.80000000,0.77328240,0.77328240,0.77328240,0.77328240,0.77328240,0.77328240,0.77328240,0.77328240,0.77328240,0.77328240,0.77328240,0.77328240,0.77328240,0.77328240,0.77328240,0.77328240,0.77328240,0.77328240,0.77328240,0.77328240,0.77328240,0.77328240,0.77328240,0.77328240,0.77328240,0.77328240,0.77328240,0.77328240,0.77328240,2
0.53333333,0.57777778,0.71111111,0.65555556,0.69444444,0.79166667,0.81805556,0.86458333,0.79895833,0.73281250,0.72196181,0.73875868,0.76937934,0.80691189,0.81456706,0.80728353,0.81475288,0.76293199,0.85924377,0.82962189,0.80369983,0.83518325,0.77314718,0.78657359,0.79328680,0.77442118,0.80943281,0.84916085,0.82458042,0.81229021,0.88392288,0.88640589,0.79875850,0.82160147,0.79968962,0.83317815,0.78325574,0.79162787,0.79581393,0.85346252,0.82673126,0.85781008,0.80668282,0.83667474,0.85167070,0.82583535,0.83513990,0.80645884,0.69211831,0.57777778,0.78660208,0.78660208,0.78660208,0.78660208,0.78660208,0.78660208,0.78660208,0.78660208,0.78660208,0.78660208,0.78660208,0.78660208,0.78660208,0.78660208,0.78660208,0.78660208,0.78660208,0.78660208,0.78660208,0.78660208,0.78660208,0.78660208,0.78660208,0.78660208,0.78660208,0.78660208,0.78660208,0.78660208,0.78660208,0.78660208,2
0.57777778,0.58888889,0.63888889,0.65277778,0.69305556,0.70208333,0.77326389,0.70885417,0.72109375,0.68276910,0.63027344,0.60402561,0.69090169,0.65656196,0.65050320,0.61414049,0.57373691,0.57575734,0.61010089,0.62727267,0.62474745,0.63459595,0.62840908,0.61420454,0.61821338,0.56466225,0.53788668,0.56894334,0.60669389,0.62556917,0.60167347,0.62305896,0.67819615,0.67243141,0.68066015,0.68477452,0.66460948,0.64341585,0.61059681,0.58307619,0.60264920,0.61243571,0.61732897,0.60866448,0.58211002,0.57994390,0.62330528,0.63387486,0.63915965,0.65291316,0.64867880,0.62433940,0.55661415,0.52275152,0.52804243,0.53068788,0.56534394,0.61600530,0.61911376,0.58733466,0.56033400,0.55794478,0.55555556,0.62006790,0.62006790,0.62006790,0.62006790,0.62006790,0.62006790,0.62006790,0.62006790,0.62006790,0.62006790,0.62006790,0.62006790,0.62006790,0.62006790,0.62006790,0.62006790,0.62006790,16
0.60000000,0.68888889,0.76666667,0.72777778,0.79722222,0.82083333,0.78819444,0.82743056,0.86927083,0.77907986,0.83398438,0.83921441,0.77516276,0.77647027,0.75490180,0.77745090,0.77761434,0.79991828,0.81107025,0.79442401,0.85276756,0.83749489,0.85208078,0.83715150,0.80746464,0.77039899,0.74075505,0.72593308,0.71852210,0.74814994,0.70740830,0.74259304,0.76018541,0.70231493,0.67337969,0.72557873,0.68501159,0.68695024,0.73236401,0.73284867,0.76642434,0.74987883,0.69716164,0.72635860,0.74095708,0.74825632,0.74079482,0.72595297,0.74075426,0.72593269,0.65185523,0.57777778,0.75455834,0.75455834,0.75455834,0.75455834,0.75455834,0.75455834,0.75455834,0.75455834,0.75455834,0.75455834,0.75455834,0.75455834,0.75455834,0.75455834,0.75455834,0.75455834,0.75455834,0.75455834,0.75455834,0.75455834,0.75455834,0.75455834,0.75455834,0.75455834,0.75455834,0.75455834,0.75455834,0.75455834,10
0.62222222,0.64444444,0.65555556,0.68333333,0.71944444,0.75972222,0.75763889,0.67881944,0.63940972,0.65303819,0.74874132,0.74103733,0.74829644,0.70748155,0.72040744,0.71575928,0.73565742,0.72338426,0.70613658,0.70862384,0.66542303,0.66604485,0.68857798,0.71095566,0.68881116,0.66662780,0.68886946,0.72221251,0.73888403,0.70277535,0.71805434,0.72569384,0.74062470,0.73697901,0.72404506,0.68424475,0.67545571,0.65995008,0.66330837,0.69832085,0.67138265,0.65791355,0.62895677,0.68114505,0.65168364,0.60361960,0.57958758,0.61201601,0.63934134,0.67522622,0.74872422,0.70769545,0.74273661,0.72692386,0.77457304,0.68728652,0.60000000,0.69164605,0.69164605,0.69164605,0.69164605,0.69164605,0.69164605,0.69164605,0.69164605,0.69164605,0.69164605,0.69164605,0.69164605,0.69164605,0.69164605,0.69164605,0.69164605,0.69164605,0.69164605,0.69164605,0.69164605,0.69164605,0.69164605,0.69164605,14
0.53333333,0.47777778,0.42222222,0.48888889,0.48888889,0.48888889,0.50000000,0.48333333,0.53055556,0.54305556,0.54930556,0.71909722,0.68177083,0.62977431,0.60377604,0.60188802,0.75649957,0.61158312,0.52801378,0.44444444,0.46666667,0.44444444,0.42222222,0.42222222,0.42222222,0.43333333,0.44444444,0.67777778,0.56111111,0.44444444,0.43333333,0.42222222,0.43333333,0.44444444,0.44444444,0.44444444,0.45555556,0.49444444,0.66944444,0.79027778,0.81736111,0.65312500,0.58211806,0.73550347,0.58997396,0.44444444,0.44444444,0.44444444,0.61111111,0.53888889,0.54722222,0.65138889,0.74791667,0.62951389,0.59253472,0.70737847,0.55368924,0.40000000,0.40000000,0.40000000,0.64444444,0.53333333,0.42222222,0.57777778,0.71111111,0.56666667,0.42222222,0.60000000,0.77777778,0.54493544,0.54493544,0.54493544,0.54493544,0.54493544,0.54493544,0.54493544,0.54493544,0.54493544,0.54493544,0.54493544,0
0.60000000,0.62222222,0.60000000,0.60000000,0.58888889,0.57222222,0.56388889,0.60416667,0.63541667,0.61770833,0.59774306,0.56553819,0.53832465,0.49138455,0.44444444,0.48888889,0.52222222,0.53888889,0.56944444,0.56250000,0.52569444,0.50729167,0.50920139,0.48793403,0.49952257,0.66087240,0.56376953,0.51521810,0.50205349,0.51769341,0.52551337,0.51831224,0.52582279,0.55180028,0.56478903,0.54906118,0.53008615,0.55393196,0.58807709,0.60514966,0.61368594,0.61795408,0.59786593,0.56559963,0.56057759,0.53584435,0.51236662,0.54507220,0.67253610,0.61404583,0.57368958,0.55351146,0.53231128,0.52171120,0.51641115,0.52487224,0.55132501,0.59788473,0.63227570,0.64947118,0.63584670,0.67347891,0.68118390,0.66281417,0.65362931,0.61570354,0.61896288,0.62059255,0.62222222,0.57100194,0.57100194,0.57100194,0.57100194,0.57100194,0.57100194,0.57100194,0.57100194,0.57100194,0.57100194,0.57100194,2
0.84444444,0.75555556,0.77777778,0.74444444,0.72777778,0.70833333,0.73194444,0.66597222,0.64409722,0.71093750,0.71102431,0.68884549,0.79997830,0.85554470,0.79443902,0.79721951,0.75416531,0.81041599,0.73854133,0.79149289,0.75130200,0.73120655,0.66560328,0.75502386,0.71084526,0.82208930,0.86660020,0.81107788,0.76109450,0.80276947,0.81249585,0.72847015,0.71979063,0.78211754,0.80216988,0.84552938,0.75609803,0.75582679,0.78902451,0.76117892,0.81392279,0.84029473,0.79792514,0.83229590,0.81614795,0.79696287,0.75403699,0.71035183,0.74406480,0.72758796,0.71111111,0.76525427,0.76525427,0.76525427,0.76525427,0.76525427,0.76525427,0.76525427,0.76525427,0.76525427,0.76525427,0.76525427,0.76525427,0.76525427,0.76525427,0.76525427,0.76525427,0.76525427,0.76525427,0.76525427,0.76525427,0.76525427,0.76525427,0.76525427,0.76525427,0.76525427,0.76525427,0.76525427,0.76525427,0.76525427,12
0.57777778,0.51111111,0.44444444,0.65555556,0.52777778,0.40000000,0.40000000,0.40000000,0.45555556,0.50555556,0.68611111,0.74305556,0.80486111,0.63576389,0.57343750,0.72005208,0.74891493,0.74112413,0.79278429,0.62972548,0.55930718,0.72409804,0.56204902,0.40000000,0.42222222,0.44444444,0.43333333,0.42222222,0.63333333,0.75000000,0.59722222,0.44444444,0.44444444,0.44444444,0.52222222,0.72777778,0.59722222,0.56527778,0.68263889,0.69687500,0.80399306,0.85755208,0.65099826,0.44444444,0.66666667,0.78888889,0.78333333,0.80277778,0.80138889,0.75625000,0.84479167,0.85572917,0.81675347,0.84171007,0.62085503,0.40000000,0.63333333,0.71666667,0.68055556,0.64444444,0.62397200,0.62397200,0.62397200,0.62397200,0.62397200,0.62397200,0.62397200,0.62397200,0.62397200,0.62397200,0.62397200,0.62397200,0.62397200,0.62397200,0.62397200,0.62397200,0.62397200,0.62397200,0.62397200,0.62397200,0
0.44444444,0.43333333,0.42222222,0.44444444,0.50000000,0.62777778,0.75833333,0.62361111,0.54513889,0.51701389,0.52517361,0.69592014,0.57018229,0.44444444,0.47777778,0.49444444,0.48055556,0.49583333,0.47013889,0.44444444,0.45555556,0.48333333,0.47500000,0.51527778,0.64652778,0.77881944,0.63385417,0.56137153,0.61401910,0.52923177,0.44444444,0.65555556,0.72777778,0.70833333,0.58750000,0.56041667,0.48020833,0.40000000,0.46666667,0.50000000,0.48333333,0.47500000,0.47083333,0.47986111,0.48437500,0.49774306,0.49331597,0.51332465,0.67888455,0.56166450,0.44444444,0.43333333,0.42222222,0.64444444,0.52222222,0.40000000,0.43333333,0.46111111,0.45277778,0.44444444,0.44444444,0.44444444,0.44444444,0.44444444,0.66666667,0.53333333,0.40000000,0.45555556,0.43888889,0.42222222,0.47777778,0.53333333,0.51585211,0.51585211,0.51585211,0.51585211,0.51585211,0.51585211,0.51585211,0.51585211,8
0.88888889,0.88888889,0.87777778,0.79444444,0.84166667,0.79861111,0.74375000,0.71631944,0.65815972,0.62907986,0.61453993,0.60726997,0.58141276,0.54626194,0.51757541,0.53656548,0.60161608,0.62303026,0.57818180,0.55575756,0.64454545,0.66671717,0.64446970,0.64445707,0.67778409,0.70555871,0.80833491,0.77083412,0.80763928,0.78159742,0.73524315,0.73428824,0.74492190,0.76134984,0.76956381,0.79589302,0.77572429,0.83230659,0.81615329,0.73029887,0.76514943,0.74924138,0.73017625,0.69842146,0.69365517,0.64682759,0.62341379,0.68948467,0.70029789,0.71681561,0.70285225,0.75142613,0.84237973,0.76563431,0.68888889,0.71294806,0.71294806,0.71294806,0.71294806,0.71294806,0.71294806,0.71294806,0.71294806,0.71294806,0.71294806,0.71294806,0.71294806,0.71294806,0.71294806,0.71294806,0.71294806,0.71294806,0.71294806,0.71294806,0.71294806,0.71294806,0.71294806,0.71294806,0.71294806,0.71294806,0
0.57777778,0.63333333,0.69444444,0.69166667,0.74583333,0.71736111,0.76979167,0.76267361,0.74800347,0.72955729,0.73144531,0.72127821,0.71619466,0.68031955,0.69571533,0.65896878,0.66281772,0.69807553,0.69348221,0.69118555,0.69003722,0.67835194,0.68362042,0.68625465,0.67646066,0.68267477,0.66355961,0.65400203,0.66033435,0.65238940,0.63730581,0.62976402,0.63710423,0.70744100,0.70927606,0.68797136,0.67731901,0.70532617,0.67488531,0.68188710,0.66316577,0.64269400,0.67690255,0.68289572,0.65255897,0.64850171,0.64647308,0.63434765,0.63939605,0.66414247,0.66540457,0.63270228,0.60524003,0.59150890,0.59575445,0.60898834,0.58227195,0.56891375,0.55555556,0.66870014,0.66870014,0.66870014,0.66870014,0.66870014,0.66870014,0.66870014,0.66870014,0.66870014,0.66870014,0.66870014,0.66870014,0.66870014,0.66870014,0.66870014,0.66870014,0.66870014,0.66870014,0.66870014,0.66870014,0.66870014,6
0.64444444,0.63333333,0.60555556,0.59166667,0.64027778,0.62013889,0.62118056,0.64392361,0.62196181,0.57764757,0.55549045,0.53330078,0.52220595,0.50554742,0.50832926,0.50972019,0.51041565,0.49965227,0.68315947,0.63046862,0.60412320,0.55761716,0.53436413,0.54495984,0.55025770,0.55290663,0.55423109,0.56600443,0.59411333,0.58594555,0.54852833,0.55204194,0.56490986,0.53801049,0.53567191,0.54561373,0.56169576,0.56973677,0.52931283,0.52021197,0.69343932,0.60227521,0.56780427,0.55056880,0.51972885,0.49319776,0.49104332,0.53441055,0.57831639,0.57804708,0.57791243,0.61117844,0.61670033,0.57501683,0.55417508,0.56597643,0.58298822,0.59149411,0.57352483,0.55342908,0.58782565,0.57169060,0.55251197,0.54292265,0.53812799,0.54684177,0.54008755,0.54782155,0.55555556,0.56758391,0.56758391,0.56758391,0.56758391,0.56758391,0.56758391,0.56758391,0.56758391,0.56758391,0.56758391,0.56758391,12
0.46666667,0.44444444,0.42222222,0.64444444,0.56666667,0.52777778,0.50833333,0.52083333,0.71597222,0.75798611,0.61232639,0.55060764,0.50863715,0.52098524,0.69382595,0.54691298,0.40000000,0.64444444,0.74444444,0.73888889,0.74722222,0.80694444,0.79236111,0.85173611,0.84809028,0.87960069,0.82868924,0.82545573,0.82383898,0.85636393,0.82818197,0.61409098,0.40000000,0.65555556,0.53888889,0.42222222,0.62222222,0.67777778,0.79444444,0.79722222,0.85416667,0.64930556,0.44444444,0.44444444,0.44444444,0.42222222,0.40000000,0.55555556,0.51111111,0.50000000,0.69444444,0.76944444,0.74027778,0.79236111,0.82951389,0.80364583,0.77960069,0.75555556,0.64720461,0.64720461,0.64720461,0.64720461,0.64720461,0.64720461,0.64720461,0.64720461,0.64720461,0.64720461,0.64720461,0.64720461,0.64720461,0.64720461,0.64720461,0.64720461,0.64720461,0.64720461,0.64720461,0.64720461,0.64720461,0.64720461,4
0.80000000,0.80000000,0.85555556,0.83888889,0.83055556,0.83750000,0.85208333,0.80381944,0.76857639,0.76206597,0.74769965,0.78496094,0.83692491,0.79624023,0.76478678,0.77128228,0.73008558,0.74282057,0.78252140,0.73570514,0.76785257,0.80614851,0.76974092,0.76264824,0.80354634,0.76843984,0.72866436,0.70877663,0.69883276,0.62719416,0.62470819,0.74568743,0.76173260,0.75864408,0.73487760,0.78966102,0.72816384,0.64185970,0.58759652,0.62713159,0.70245468,0.74011623,0.71450256,0.75725128,0.83418120,0.86153504,0.83076752,0.84871709,0.83546966,0.82884594,0.82222222,0.76588320,0.76588320,0.76588320,0.76588320,0.76588320,0.76588320,0.76588320,0.76588320,0.76588320,0.76588320,0.76588320,0.76588320,0.76588320,0.76588320,0.76588320,0.76588320,0.76588320,0.76588320,0.76588320,0.76588320,0.76588320,0.76588320,0.76588320,0.76588320,0.76588320,0.76588320,0.76588320,0.76588320,0.76588320,10
0.40000000,0.58888889,0.66111111,0.71944444,0.70416667,0.67430556,0.80381944,0.76857639,0.78428819,0.79214410,0.76273872,0.77025825,0.71846246,0.75923123,0.73517117,0.76758558,0.67268168,0.65856306,0.70705931,0.68686299,0.56565372,0.44444444,0.58888889,0.62777778,0.65833333,0.69583333,0.68125000,0.68506944,0.75364583,0.82126736,0.79952257,0.84420573,0.78876953,0.78327365,0.74719238,0.74026286,0.73679810,0.71284349,0.77864397,0.74487754,0.75021655,0.74177494,0.71533191,0.74655485,0.70661076,0.69774982,0.69331936,0.74665968,0.73999651,0.71444270,0.69055468,0.64527734,0.66708311,0.67798600,0.68888889,0.70829746,0.70829746,0.70829746,0.70829746,0.70829746,0.70829746,0.70829746,0.70829746,0.70829746,0.70829746,0.70829746,0.70829746,0.70829746,0.70829746,0.70829746,0.70829746,0.70829746,0.70829746,0.70829746,0.70829746,0.70829746,0.70829746,0.70829746,0.70829746,0.70829746,12
0.40000000,0.66666667,0.68888889,0.56666667,0.44444444,0.47777778,0.46111111,0.44444444,0.51111111,0.46666667,0.42222222,0.43333333,0.44444444,0.44444444,0.44444444,0.67777778,0.79444444,0.63055556,0.57083333,0.72986111,0.80937500,0.80468750,0.63567708,0.58450521,0.74780816,0.82945964,0.80361871,0.64625380,0.57868245,0.51156345,0.44444444,0.66666667,0.73333333,0.73333333,0.63333333,0.56111111,0.56944444,0.55138889,0.49791667,0.44444444,0.43333333,0.42222222,0.56666667,0.58333333,0.55833333,0.53472222,0.55625000,0.68923611,0.76684028,0.75008681,0.71948785,0.77085503,0.86320530,0.80938043,0.78246799,0.85790066,0.67339478,0.60336405,0.74612647,0.57306324,0.40000000,0.48888889,0.57777778,0.60689085,0.60689085,0.60689085,0.60689085,0.60689085,0.60689085,0.60689085,0.60689085,0.60689085,0.60689085,0.60689085,0.60689085,0.60689085,0.60689085,0.60689085,0.60689085,0.60689085,10
0.88888889,0.87777778,0.85000000,0.82500000,0.77916667,0.75625000,0.73368056,0.76684028,0.71675347,0.68059896,0.72918837,0.73126085,0.72118598,0.69392632,0.64696316,0.65681491,0.69507412,0.70309262,0.70710186,0.74243982,0.78233102,0.76894329,0.78447164,0.77001360,0.72945124,0.68694784,0.69902948,0.63840363,0.63031292,0.67071202,0.66868934,0.70101134,0.68383900,0.68636395,0.70984864,0.73270210,0.73301772,0.74428664,0.71658776,0.71384944,0.65692472,0.63957347,0.68645340,0.66544892,0.64383557,0.58858445,0.56095889,0.56936834,0.58468417,0.63678653,0.66283771,0.67586330,0.64904276,0.64674360,0.63448291,0.62222222,0.70136836,0.70136836,0.70136836,0.70136836,0.70136836,0.70136836,0.70136836,0.70136836,0.70136836,0.70136836,0.70136836,0.70136836,0.70136836,0.70136836,0.70136836,0.70136836,0.70136836,0.70136836,0.70136836,0.70136836,0.70136836,0.70136836,0.70136836,0.70136836,18
0.73333333,0.74444444,0.79444444,0.79722222,0.85416667,0.87152778,0.84687500,0.79010417,0.77282986,0.76419271,0.75987413,0.74660373,0.67330187,0.63665093,0.66276991,0.70916273,0.72124803,0.70506846,0.64142312,0.66515600,0.69924467,0.78295567,0.78036672,0.74573892,0.68398057,0.59754584,0.62099514,0.65494202,0.66080434,0.69706884,0.73742331,0.73537832,0.70102249,0.68384458,0.65303340,0.61540559,0.59659168,0.63162918,0.63803681,0.65235174,0.68173142,0.76308793,0.74821063,0.71854976,0.73705266,0.71297077,0.71204094,0.74490936,0.68356579,0.68622734,0.69866923,0.72711239,0.79688953,0.70955588,0.62222222,0.71275555,0.71275555,0.71275555,0.71275555,0.71275555,0.71275555,0.71275555,0.71275555,0.71275555,0.71275555,0.71275555,0.71275555,0.71275555,0.71275555,0.71275555,0.71275555,0.71275555,0.71275555,0.71275555,0.71275555,0.71275555,0.71275555,0.71275555,0.71275555,0.71275555,2
0.91111111,0.92222222,0.83888889,0.63055556,0.42222222,0.45555556,0.48333333,0.67500000,0.74861111,0.61875000,0.56493056,0.49357639,0.42222222,0.45555556,0.48333333,0.48611111,0.49861111,0.48263889,0.50798611,0.66510417,0.71032986,0.74405382,0.71647135,0.70268012,0.75134006,0.79789225,0.77672390,0.82169529,0.79973653,0.81097938,0.82771191,0.78052262,0.77915020,0.81179732,0.77256533,0.76406044,0.83758578,0.79657067,0.80939644,0.73803156,0.73568244,0.75673011,0.78947617,0.73918253,0.63625793,0.59590674,0.65350893,0.71564335,0.71337723,0.72335528,0.69501097,0.70306104,0.76264163,0.77020971,0.58510485,0.40000000,0.46666667,0.67995491,0.67995491,0.67995491,0.67995491,0.67995491,0.67995491,0.67995491,0.67995491,0.67995491,0.67995491,0.67995491,0.67995491,0.67995491,0.67995491,0.67995491,0.67995491,0.67995491,0.67995491,0.67995491,0.67995491,0.67995491,0.67995491,0.67995491,10
0.60000000,0.40000000,0.65555556,0.79444444,0.79722222,0.84305556,0.86597222,0.65520833,0.44444444,0.42222222,0.40000000,0.44444444,0.47777778,0.66111111,0.54166667,0.42222222,0.66666667,0.77777778,0.61111111,0.44444444,0.65555556,0.52777778,0.40000000,0.65555556,0.73888889,0.72500000,0.72916667,0.72013889,0.74895833,0.77447917,0.78723958,0.77139757,0.78569878,0.79284939,0.76309136,0.73710124,0.76855062,0.82871975,0.81435988,0.79606883,0.78692330,0.71568387,0.66895305,0.80114319,0.77834937,0.76695246,0.78347623,0.74729367,0.72920239,0.72015675,0.79341171,0.68559474,0.62057515,0.66584313,0.55514379,0.44444444,0.48888889,0.67014002,0.67014002,0.67014002,0.67014002,0.67014002,0.67014002,0.67014002,0.67014002,0.67014002,0.67014002,0.67014002,0.67014002,0.67014002,0.67014002,0.67014002,0.67014002,0.67014002,0.67014002,0.67014002,0.67014002,0.67014002,0.67014002,0.67014002,14
0.57777778,0.68888889,0.78888889,0.72777778,0.83055556,0.87083333,0.89097222,0.88993056,0.85607639,0.79470486,0.81957465,0.85423177,0.82711589,0.73578016,0.67900119,0.69505615,0.75863919,0.80154182,0.74521535,0.76149657,0.74741495,0.76259636,0.78129818,0.77953798,0.77865788,0.77821783,0.77799780,0.76677668,0.75005501,0.77502750,0.73195820,0.77709021,0.75521177,0.73316144,0.72213628,0.71662369,0.78053407,0.82360037,0.76735574,0.72812231,0.74183893,0.71536391,0.80212640,0.81217431,0.73942049,0.76971024,0.77374401,0.80909423,0.79343600,0.74116245,0.68888889,0.76890967,0.76890967,0.76890967,0.76890967,0.76890967,0.76890967,0.76890967,0.76890967,0.76890967,0.76890967,0.76890967,0.76890967,0.76890967,0.76890967,0.76890967,0.76890967,0.76890967,0.76890967,0.76890967,0.76890967,0.76890967,0.76890967,0.76890967,0.76890967,0.76890967,0.76890967,0.76890967,0.76890967,0.76890967,8
0.80000000,0.74444444,0.71666667,0.71388889,0.73472222,0.76736111,0.73923611,0.70295139,0.68480903,0.67573785,0.70453559,0.66337891,0.66502279,0.68806695,0.68847792,0.67757229,0.64989726,0.65828196,0.67358543,0.70345938,0.69617413,0.64808707,0.60182131,0.60091066,0.64489977,0.65578322,0.63900272,0.64172358,0.65419512,0.69376423,0.73577100,0.66788550,0.57838720,0.60030471,0.61126347,0.59452062,0.64170476,0.62085238,0.59931508,0.58854643,0.60538432,0.64713661,0.70134608,0.72845082,0.71978096,0.67100159,0.62438969,0.60108373,0.60054187,0.61138204,0.63902436,0.64173440,0.60975609,0.58265582,0.56910569,0.58455284,0.57005420,0.54058266,0.53695799,0.55736789,0.57777778,0.65060781,0.65060781,0.65060781,0.65060781,0.65060781,0.65060781,0.65060781,0.65060781,0.65060781,0.65060781,0.65060781,0.65060781,0.65060781,0.65060781,0.65060781,0.65060781,0.65060781,0.65060781,0.65060781,0
0.64444444,0.68888889,0.70000000,0.76111111,0.80277778,0.74583333,0.73958333,0.73645833,0.80156250,0.76744792,0.80594618,0.78075087,0.79037543,0.79518772,0.84203830,0.78768582,0.80495402,0.79136590,0.78457184,0.78117481,0.79058740,0.79529370,0.78653574,0.82660120,0.80218949,0.82331697,0.74499182,0.76138480,0.73624795,0.73479064,0.75628421,0.75591988,0.75573772,0.73342442,0.78893443,0.77224499,0.79723361,0.76528347,0.67153062,0.64687642,0.62343821,0.60060799,0.56697066,0.58348533,0.63618711,0.68476022,0.69793567,0.69341228,0.68003947,0.66224196,0.65334320,0.63778271,0.61889136,0.60000000,0.73216045,0.73216045,0.73216045,0.73216045,0.73216045,0.73216045,0.73216045,0.73216045,0.73216045,0.73216045,0.73216045,0.73216045,0.73216045,0.73216045,0.73216045,0.73216045,0.73216045,0.73216045,0.73216045,0.73216045,0.73216045,0.73216045,0.73216045,0.73216045,0.73216045,0.73216045,10
0.71111111,0.76666667,0.72777778,0.76388889,0.75972222,0.77986111,0.77881944,0.77829861,0.75581597,0.78901910,0.72784288,0.77503255,0.78751628,0.76042480,0.80243462,0.82343953,0.77838643,0.83363766,0.80570772,0.74729830,0.76253804,0.75904680,0.80174562,0.70087281,0.73932529,0.74744042,0.78483132,0.78130455,0.83509672,0.81754836,0.83099640,0.83772042,0.82997132,0.77054122,0.78527061,0.78152419,0.75742876,0.76760327,0.77269052,0.71967860,0.70428374,0.76325298,0.72607094,0.77414658,0.73151773,0.71020331,0.74399054,0.78310638,0.76933097,0.72910993,0.68888889,0.76783880,0.76783880,0.76783880,0.76783880,0.76783880,0.76783880,0.76783880,0.76783880,0.76783880,0.76783880,0.76783880,0.76783880,0.76783880,0.76783880,0.76783880,0.76783880,0.76783880,0.76783880,0.76783880,0.76783880,0.76783880,0.76783880,0.76783880,0.76783880,0.76783880,0.76783880,0.76783880,0.76783880,0.76783880,14
0.66666667,0.68888889,0.66666667,0.71111111,0.68888889,0.76666667,0.72777778,0.71944444,0.73750000,0.73541667,0.65659722,0.60607639,0.63637153,0.62929687,0.60353733,0.57954644,0.58977322,0.59488661,0.50855442,0.42222222,0.51111111,0.56666667,0.57222222,0.58611111,0.60416667,0.60208333,0.60104167,0.58940972,0.59470486,0.60846354,0.59312066,0.61878255,0.65383572,0.63802897,0.64123671,0.66506280,0.66586473,0.63293237,0.62757729,0.65823309,0.67356099,0.69233605,0.62394580,0.56752846,0.51709756,0.53632656,0.57927439,0.60074831,0.60037415,0.57796485,0.57787132,0.63338010,0.65002338,0.63612280,0.62917251,0.61458626,0.59618202,0.56475768,0.57126773,0.57452275,0.57615026,0.55474180,0.53333333,0.61663198,0.61663198,0.61663198,0.61663198,0.61663198,0.61663198,0.61663198,0.61663198,0.61663198,0.61663198,0.61663198,0.61663198,0.61663198,0.61663198,0.61663198,0.61663198,0.61663198,4
0.66666667,0.71111111,0.76666667,0.72777778,0.78611111,0.75972222,0.76875000,0.75104167,0.73107639,0.68776042,0.68832465,0.72194010,0.71652561,0.68048503,0.71802029,0.67012126,0.64617174,0.63419698,0.62820960,0.62521591,0.61260796,0.68408176,0.66426310,0.64324266,0.66606578,0.71081067,0.75540533,0.73325822,0.72218467,0.72775900,0.69721283,0.68193975,0.70763654,0.70937383,0.72135358,0.71623235,0.68033839,0.67350253,0.68119571,0.71837563,0.74807671,0.72959391,0.69813029,0.69350959,0.71342146,0.67893295,0.68391092,0.67528879,0.65986662,0.68548887,0.68718888,0.71026111,0.77735277,0.75534305,0.76656042,0.77777778,0.70416856,0.70416856,0.70416856,0.70416856,0.70416856,0.70416856,0.70416856,0.70416856,0.70416856,0.70416856,0.70416856,0.70416856,0.70416856,0.70416856,0.70416856,0.70416856,0.70416856,0.70416856,0.70416856,0.70416856,0.70416856,0.70416856,0.70416856,0.70416856,16
0.40000000,0.68888889,0.74444444,0.78333333,0.81388889,0.79583333,0.87569444,0.86006944,0.87447917,0.89279514,0.90195313,0.81764323,0.77548828,0.80996636,0.81609429,0.79693604,0.85402357,0.82701179,0.88017256,0.65119739,0.42222222,0.60000000,0.68888889,0.54444444,0.40000000,0.61111111,0.51666667,0.42222222,0.44444444,0.46666667,0.45555556,0.44444444,0.42222222,0.40000000,0.44444444,0.46666667,0.47777778,0.48333333,0.45277778,0.42222222,0.63333333,0.56111111,0.53611111,0.47916667,0.42222222,0.68888889,0.74444444,0.79444444,0.83055556,0.85972222,0.88541667,0.83159722,0.73802083,0.69123264,0.65672743,0.66169705,0.70862630,0.75555556,0.65387756,0.65387756,0.65387756,0.65387756,0.65387756,0.65387756,0.65387756,0.65387756,0.65387756,0.65387756,0.65387756,0.65387756,0.65387756,0.65387756,0.65387756,0.65387756,0.65387756,0.65387756,0.65387756,0.65387756,0.65387756,0.65387756,20
0.51111111,0.62222222,0.68888889,0.77777778,0.81111111,0.82777778,0.78055556,0.79027778,0.81736111,0.74201389,0.73767361,0.74661458,0.76219618,0.72554253,0.69610460,0.71471897,0.69069282,0.68979085,0.64489543,0.61133660,0.63900163,0.70838971,0.72086152,0.72709743,0.71910427,0.71510769,0.73533162,0.70099914,0.69494402,0.73636090,0.72373600,0.72853467,0.71982289,0.71546700,0.67995572,0.66220008,0.66443338,0.66555002,0.68833057,0.72194306,0.72763820,0.70826354,0.68746510,0.69928811,0.69408850,0.73593314,0.72352212,0.72842773,0.74199164,0.74877360,0.72994236,0.69830451,0.68248559,0.67457613,0.66666667,0.71096730,0.71096730,0.71096730,0.71096730,0.71096730,0.71096730,0.71096730,0.71096730,0.71096730,0.71096730,0.71096730,0.71096730,0.71096730,0.71096730,0.71096730,0.71096730,0.71096730,0.71096730,0.71096730,0.71096730,0.71096730,0.71096730,0.71096730,0.71096730,0.71096730,0
0.48888889,0.70000000,0.81666667,0.81944444,0.85416667,0.87152778,0.89131944,0.84565972,0.84505208,0.82252604,0.83348524,0.87229818,0.86948242,0.81251899,0.83959283,0.80868530,0.77100932,0.74106021,0.77053011,0.76304283,0.75929919,0.79076071,0.71760258,0.58102351,0.44444444,0.62222222,0.68888889,0.72222222,0.62777778,0.52500000,0.42222222,0.44444444,0.54444444,0.68333333,0.68611111,0.69861111,0.68263889,0.61909722,0.60954861,0.61588542,0.61905382,0.60952691,0.60476345,0.66904839,0.65674642,0.68392877,0.70863105,0.66542664,0.66604665,0.69968999,0.67206722,0.64714472,0.65690569,0.63956396,0.60867087,0.57777778,0.69477728,0.69477728,0.69477728,0.69477728,0.69477728,0.69477728,0.69477728,0.69477728,0.69477728,0.69477728,0.69477728,0.69477728,0.69477728,0.69477728,0.69477728,0.69477728,0.69477728,0.69477728,0.69477728,0.69477728,0.69477728,0.69477728,0.69477728,0.69477728,10
0.40000000,0.61111111,0.61666667,0.50833333,0.40000000,0.43333333,0.47222222,0.44722222,0.42222222,0.53333333,0.63333333,0.78333333,0.74722222,0.84027778,0.87569444,0.66006944,0.44444444,0.64444444,0.77777778,0.60000000,0.42222222,0.44444444,0.48888889,0.68888889,0.72222222,0.72777778,0.77500000,0.77638889,0.77708333,0.79965278,0.73315972,0.83324653,0.80551215,0.85831163,0.87360026,0.80346680,0.85728895,0.86197781,0.87543335,0.92660556,0.82996945,0.84831806,0.85749236,0.63985729,0.42222222,0.61111111,0.75000000,0.77500000,0.84305556,0.83263889,0.83854167,0.79704861,0.62074653,0.44444444,0.51111111,0.68225039,0.68225039,0.68225039,0.68225039,0.68225039,0.68225039,0.68225039,0.68225039,0.68225039,0.68225039,0.68225039,0.68225039,0.68225039,0.68225039,0.68225039,0.68225039,0.68225039,0.68225039,0.68225039,0.68225039,0.68225039,0.68225039,0.68225039,0.68225039,0.68225039,10
0.77777778,0.72222222,0.76111111,0.72500000,0.77361111,0.76458333,0.82673611,0.82447917,0.79001736,0.77278646,0.83083767,0.73764106,0.76882053,0.75107693,0.78664958,0.81554701,0.84110684,0.84277564,0.81027671,0.81624947,0.85256918,0.81517348,0.81869785,0.83157115,0.81578557,0.75233723,0.78727973,0.84919542,0.84681993,0.82340997,0.82281609,0.84474138,0.82237069,0.82229646,0.86670378,0.80001856,0.78889817,0.75000464,0.76389121,0.78194560,0.80208391,0.77881973,0.77829876,0.76692716,0.81679691,0.80839846,0.78197701,0.73543295,0.70104981,0.66666667,0.79264567,0.79264567,0.79264567,0.79264567,0.79264567,0.79264567,0.79264567,0.79264567,0.79264567,0.79264567,0.79264567,0.79264567,0.79264567,0.79264567,0.79264567,0.79264567,0.79264567,0.79264567,0.79264567,0.79264567,0.79264567,0.79264567,0.79264567,0.79264567,0.79264567,0.79264567,0.79264567,0.79264567,0.79264567,0.79264567,10
0.60000000,0.64444444,0.60000000,0.53333333,0.52222222,0.55000000,0.63055556,0.63750000,0.62986111,0.57048611,0.57413194,0.62039931,0.69908854,0.70509983,0.67477214,0.69294162,0.71313748,0.72323541,0.68383993,0.74191996,0.71540443,0.66881332,0.70107333,0.71720333,0.63637944,0.62930083,0.67020597,0.69065854,0.66755149,0.62266464,0.58911010,0.55011060,0.55283308,0.58752765,0.61598605,0.54132636,0.54844096,0.56310937,0.52599913,0.51855512,0.54816645,0.54074989,0.52593050,0.55185414,0.56481596,0.56018576,0.54675955,0.52893533,0.54224544,0.58223383,0.61333914,0.59555846,0.60889034,0.63777850,0.66333370,0.65388907,0.66027787,0.66347227,0.65395836,0.66031251,0.66348959,0.67618924,0.62698351,0.57777778,0.61728672,0.61728672,0.61728672,0.61728672,0.61728672,0.61728672,0.61728672,0.61728672,0.61728672,0.61728672,0.61728672,0.61728672,0.61728672,0.61728672,0.61728672,0.61728672,4
0.57777778,0.62222222,0.76666667,0.79444444,0.85277778,0.87083333,0.66875000,0.60104167,0.50052083,0.40000000,0.64444444,0.73333333,0.80000000,0.83333333,0.80555556,0.82500000,0.79027778,0.77291667,0.75312500,0.73211806,0.73272569,0.73302951,0.74429253,0.74992405,0.74162869,0.65970323,0.57429606,0.56492581,0.68246290,0.74123145,0.75950461,0.80197453,0.80098726,0.78938252,0.73913571,0.71401230,0.73478393,0.80072530,0.78925154,0.79462577,0.77509066,0.77643422,0.77710600,0.79966411,0.73316539,0.77769381,0.75551357,0.66664567,0.67776728,0.72777253,0.78610849,0.77083202,0.75555556,0.73156777,0.73156777,0.73156777,0.73156777,0.73156777,0.73156777,0.73156777,0.73156777,0.73156777,0.73156777,0.73156777,0.73156777,0.73156777,0.73156777,0.73156777,0.73156777,0.73156777,0.73156777,0.73156777,0.73156777,0.73156777,0.73156777,0.73156777,0.73156777,0.73156777,0.73156777,0.73156777,22
0.55555556,0.58888889,0.57222222,0.55277778,0.55416667,0.51041667,0.52187500,0.47204861,0.42222222,0.61111111,0.57222222,0.51944444,0.50416667,0.50763889,0.50937500,0.52135417,0.48289931,0.44444444,0.54444444,0.56111111,0.52500000,0.51805556,0.49236111,0.51284722,0.47864583,0.44444444,0.65555556,0.76111111,0.83611111,0.87361111,0.85902778,0.82951389,0.84809028,0.66848958,0.56757813,0.52823351,0.53078342,0.48761393,0.44444444,0.44444444,0.44444444,0.66666667,0.74444444,0.76111111,0.78055556,0.75694444,0.80069444,0.60034722,0.40000000,0.67777778,0.71666667,0.79166667,0.84027778,0.63125000,0.42222222,0.62222222,0.66666667,0.73333333,0.73333333,0.76666667,0.75000000,0.73333333,0.61088666,0.61088666,0.61088666,0.61088666,0.61088666,0.61088666,0.61088666,0.61088666,0.61088666,0.61088666,0.61088666,0.61088666,0.61088666,0.61088666,0.61088666,0.61088666,0.61088666,0.61088666,6
0.57777778,0.54444444,0.53888889,0.71388889,0.55694444,0.40000000,0.62222222,0.75555556,0.60000000,0.44444444,0.65555556,0.81666667,0.76388889,0.83750000,0.64097222,0.44444444,0.66666667,0.73333333,0.80000000,0.81111111,0.82777778,0.82500000,0.85694444,0.76180556,0.82534722,0.81267361,0.85078125,0.79205729,0.84047309,0.83134766,0.82678494,0.82450358,0.82336290,0.78945923,0.73917406,0.71403147,0.75701574,0.74517454,0.72814282,0.73073808,0.73203571,0.76601785,0.76078670,0.78039335,0.69019668,0.61176500,0.66143806,0.73071903,0.76535951,0.76045754,0.74689543,0.74011438,0.73333333,0.72276252,0.72276252,0.72276252,0.72276252,0.72276252,0.72276252,0.72276252,0.72276252,0.72276252,0.72276252,0.72276252,0.72276252,0.72276252,0.72276252,0.72276252,0.72276252,0.72276252,0.72276252,0.72276252,0.72276252,0.72276252,0.72276252,0.72276252,0.72276252,0.72276252,0.72276252,0.72276252,10
0.55555556,0.60000000,0.63333333,0.63888889,0.61944444,0.60972222,0.63819444,0.63020833,0.64843750,0.64644097,0.63433160,0.63938802,0.65302734,0.63762478,0.62992350,0.65940620,0.68525865,0.68707377,0.66575911,0.63287955,0.63866200,0.65266433,0.63744328,0.59649942,0.55380526,0.51023597,0.54400687,0.57200344,0.57489061,0.58744530,0.59372265,0.58575021,0.58176400,0.49088200,0.40000000,0.44444444,0.47777778,0.48333333,0.49722222,0.50416667,0.51875000,0.55937500,0.56857639,0.57317708,0.55325521,0.50996094,0.52164714,0.52749023,0.51930067,0.51520589,0.55760295,0.58991258,0.56162296,0.53636703,0.52373907,0.52853620,0.55315699,0.55435627,0.53273369,0.55525573,0.59985009,0.57770282,0.56662919,0.58331459,0.56943508,0.57360643,0.58680321,0.60000000,0.57630855,0.57630855,0.57630855,0.57630855,0.57630855,0.57630855,0.57630855,0.57630855,0.57630855,0.57630855,0.57630855,0.57630855,8
0.66666667,0.78888889,0.78333333,0.78055556,0.81250000,0.83958333,0.76423611,0.73767361,0.64661458,0.60108507,0.64498698,0.73360460,0.73346897,0.70006782,0.80558946,0.68057251,0.62917514,0.65903202,0.67396045,0.65920245,0.65182345,0.68146728,0.68517808,0.77592238,0.75462785,0.78842504,0.73865696,0.70266182,0.72910869,0.72010990,0.71561050,0.68002747,0.74001374,0.74778465,0.71833677,0.73694616,0.70180641,0.72868098,0.68656271,0.75439247,0.71052957,0.73304256,0.74429906,0.72770508,0.71940810,0.70414849,0.75207425,0.76492601,0.71579634,0.78012039,0.71228242,0.75614121,0.73362616,0.67792419,0.62222222,0.72060340,0.72060340,0.72060340,0.72060340,0.72060340,0.72060340,0.72060340,0.72060340,0.72060340,0.72060340,0.72060340,0.72060340,0.72060340,0.72060340,0.72060340,0.72060340,0.72060340,0.72060340,0.72060340,0.72060340,0.72060340,0.72060340,0.72060340,0.72060340,0.72060340,12
0.80000000,0.76666667,0.75000000,0.78611111,0.77083333,0.76319444,0.78159722,0.76857639,0.72873264,0.71992188,0.71551649,0.67998047,0.70665690,0.71999512,0.74888645,0.72999878,0.74277717,0.71583303,0.70236096,0.67340270,0.64781246,0.71279512,0.67861978,0.65042100,0.63632161,0.66260525,0.66463596,0.66565131,0.64393677,0.62196838,0.57765086,0.53326987,0.53330160,0.55553969,0.55554762,0.53332937,0.53333135,0.54444345,0.57222173,0.63055531,0.60416654,0.59097216,0.59548608,0.59774304,0.59887152,0.57721354,0.58860677,0.60541450,0.60270725,0.65690918,0.66178792,0.66422729,0.63211365,0.58272349,0.55802841,0.56790309,0.58395155,0.56975355,0.59598789,0.60910505,0.62222222,0.64903106,0.64903106,0.64903106,0.64903106,0.64903106,0.64903106,0.64903106,0.64903106,0.64903106,0.64903106,0.64903106,0.64903106,0.64903106,0.64903106,0.64903106,0.64903106,0.64903106,0.64903106,0.64903106,10
0.40000000,0.41111111,0.42222222,0.44444444,0.46666667,0.45555556,0.44444444,0.61111111,0.73888889,0.76944444,0.77361111,0.85347222,0.76006944,0.82447917,0.63446181,0.44444444,0.44444444,0.44444444,0.45555556,0.47222222,0.45833333,0.44444444,0.63333333,0.72777778,0.77500000,0.76527778,0.76041667,0.75798611,0.77899306,0.77838542,0.78919271,0.80570747,0.79174262,0.77364909,0.82015788,0.78785672,0.59392836,0.40000000,0.40000000,0.40000000,0.42222222,0.44444444,0.63333333,0.70555556,0.76388889,0.82638889,0.75763889,0.75659722,0.76718750,0.77248264,0.73068576,0.73200955,0.74378255,0.74966905,0.71927897,0.74852837,0.69648641,0.75935432,0.82222222,0.64855989,0.64855989,0.64855989,0.64855989,0.64855989,0.64855989,0.64855989,0.64855989,0.64855989,0.64855989,0.64855989,0.64855989,0.64855989,0.64855989,0.64855989,0.64855989,0.64855989,0.64855989,0.64855989,0.64855989,0.64855989,8
0.60000000,0.65555556,0.63888889,0.63055556,0.68194444,0.72986111,0.78715278,0.68246528,0.60789931,0.62617188,0.64641927,0.64543186,0.62271593,0.65580241,0.66123454,0.73061727,0.69864197,0.69376543,0.68021605,0.67344136,0.64783179,0.61280478,0.57306906,0.55320120,0.58771171,0.61607808,0.65248348,0.62624174,0.57978754,0.57878266,0.60050244,0.63358455,0.68345894,0.70839614,0.69864251,0.71598792,0.66910507,0.69010809,0.65616516,0.62808258,0.60293018,0.60146509,0.61184366,0.58369961,0.56962758,0.62925823,0.64796245,0.69064789,0.64532395,0.58932864,0.57244210,0.57510994,0.62088830,0.62155526,0.63299985,0.61649993,0.59713885,0.56523609,0.57150694,0.61908680,0.63176562,0.64444444,0.63712206,0.63712206,0.63712206,0.63712206,0.63712206,0.63712206,0.63712206,0.63712206,0.63712206,0.63712206,0.63712206,0.63712206,0.63712206,0.63712206,0.63712206,0.63712206,0.63712206,0.63712206,8
0.53333333,0.53333333,0.55555556,0.57777778,0.60000000,0.63333333,0.63888889,0.63055556,0.61527778,0.59652778,0.57604167,0.57690972,0.57734375,0.58867187,0.60544705,0.60272352,0.57913954,0.55623644,0.55589600,0.55572578,0.56675178,0.56115367,0.55835461,0.56806619,0.57292199,0.56423877,0.57100827,0.57439303,0.57608540,0.55470937,0.53291024,0.53312179,0.52211645,0.53883600,0.58052911,0.57915344,0.54513228,0.53923281,0.55850529,0.56814153,0.56184855,0.54759094,0.52935103,0.54245329,0.56011553,0.55783554,0.54558444,0.55057000,0.53084055,0.50986472,0.49937681,0.51635507,0.52484420,0.52908877,0.56454438,0.58227219,0.56891387,0.57334583,0.55333958,0.52111423,0.48277934,0.44444444,0.44444444,0.48888889,0.51111111,0.51111111,0.52222222,0.53888889,0.54722222,0.54027778,0.53333333,0.55335287,0.55335287,0.55335287,0.55335287,0.55335287,0.55335287,0.55335287,0.55335287,0.55335287,6
0.64444444,0.70000000,0.66111111,0.68611111,0.69861111,0.69375000,0.68020833,0.71788194,0.69227431,0.71280382,0.68973524,0.64486762,0.58910048,0.53899468,0.54727512,0.57363756,0.58681878,0.58229828,0.60226025,0.67890790,0.65056506,0.62528253,0.63486349,0.58409841,0.54760476,0.55158016,0.55356786,0.57678393,0.62172530,0.62197376,0.58876466,0.56104900,0.58052450,0.60137336,0.56735335,0.57256556,0.60850500,0.61536361,0.64101514,0.66495201,0.64358712,0.55512689,0.53311900,0.56655950,0.67216864,0.68052876,0.61804216,0.55346552,0.55451054,0.55503305,0.55529430,0.61098048,0.63882358,0.58607845,0.55970589,0.60207517,0.60103758,0.57829657,0.56692606,0.57235192,0.59728707,0.58753242,0.58265510,0.57777778,0.60999324,0.60999324,0.60999324,0.60999324,0.60999324,0.60999324,0.60999324,0.60999324,0.60999324,0.60999324,0.60999324,0.60999324,0.60999324,0.60999324,0.60999324,0.60999324,8
0.68888889,0.64444444,0.57777778,0.56666667,0.59444444,0.64166667,0.65416667,0.62708333,0.62465278,0.64565972,0.62282986,0.57808160,0.52237413,0.55007595,0.55281576,0.52085232,0.54931505,0.56354641,0.55955098,0.55755327,0.54544330,0.51716610,0.50302749,0.49595819,0.51464576,0.52398955,0.52866144,0.56433072,0.57105425,0.57441601,0.60943023,0.69360400,0.66902422,0.59006767,0.52836717,0.50862803,0.48764735,0.48826812,0.52191184,0.51651147,0.49158907,0.51246120,0.46734171,0.42222222,0.47777778,0.45000000,0.42222222,0.50000000,0.52777778,0.54166667,0.54861111,0.57430556,0.55381944,0.53246528,0.53289931,0.55533854,0.53322483,0.51105686,0.52219510,0.52776421,0.56388211,0.57082994,0.54097053,0.53715193,0.50190930,0.51762132,0.70325510,0.60718311,0.54803600,0.52957355,0.51111111,0.55113891,0.55113891,0.55113891,0.55113891,0.55113891,0.55113891,0.55113891,0.55113891,0.55113891,18
0.53333333,0.61111111,0.71666667,0.73611111,0.70138889,0.69513889,0.76979167,0.72934028,0.72022569,0.68233507,0.68561198,0.68725043,0.78806966,0.79403483,0.78590630,0.75961982,0.69092102,0.65657162,0.70606359,0.68636513,0.75429367,0.69936906,0.71635120,0.68039782,0.68464335,0.68676612,0.64338306,0.68835820,0.68862354,0.71097844,0.68882255,0.67774461,0.69442786,0.66943615,0.63471808,0.57291459,0.57534619,0.62100643,0.61050321,0.63858494,0.66373691,0.59853512,0.54371201,0.59407823,0.71926133,0.82629733,0.81314867,0.80657433,0.74773161,0.66275469,0.66471068,0.63235534,0.57173323,0.55253328,0.59848886,0.65479999,0.64962222,0.64444444,0.67960421,0.67960421,0.67960421,0.67960421,0.67960421,0.67960421,0.67960421,0.67960421,0.67960421,0.67960421,0.67960421,0.67960421,0.67960421,0.67960421,0.67960421,0.67960421,0.67960421,0.67960421,0.67960421,0.67960421,0.67960421,0.67960421,2
0.77777778,0.64444444,0.52222222,0.40000000,0.45555556,0.47222222,0.43611111,0.40000000,0.44444444,0.47777778,0.48333333,0.48611111,0.52083333,0.51597222,0.50243056,0.50677083,0.46449653,0.42222222,0.43333333,0.44444444,0.64444444,0.67777778,0.78333333,0.60277778,0.42222222,0.43333333,0.44444444,0.43333333,0.42222222,0.42222222,0.42222222,0.41111111,0.40000000,0.61111111,0.52777778,0.44444444,0.43333333,0.42222222,0.43333333,0.44444444,0.64444444,0.53333333,0.42222222,0.64444444,0.55555556,0.50000000,0.44444444,0.44444444,0.46666667,0.46666667,0.46666667,0.50000000,0.67222222,0.76944444,0.64027778,0.57569444,0.51006944,0.44444444,0.66666667,0.73333333,0.81111111,0.60555556,0.40000000,0.64444444,0.77777778,0.75555556,0.80000000,0.80000000,0.80000000,0.53829131,0.53829131,0.53829131,0.53829131,0.53829131,0.53829131,0.53829131,0.53829131,0.53829131,0.53829131,0.53829131,24
