1,2,3,4,5,6,7,8,9,10,11,12,13,14,15,16,17,18,19,20,21,22,23,24,25,26,27,28,29,30,31,32,33,34,35,36,37,38,39,40,41,42,43,44,45,46,47,48,49,50,51,52,53,54,55,56,57,58,59,60,61,62,63,64,65,66,67,68,69,70,71,72,73,74,75,76,77,78,79,80,压力
0.541666667,0.541666667,0.699894515,0.939345992,0.546413502,0.427215190,0.345991561,0.607594937,0.400843882,0.751582278,0.563818565,0.758966245,0.555907173,0.248945148,0.381856540,0.448312236,0.367088608,0.689345992,0.686181435,0.306962025,0.331223629,0.480485232,0.310654008,0.299050633,0.508966245,0.427742616,0.332278481,0.329113924,0.572784810,0.672468354,0.538502110,0.719936709,0.450421941,0.389240506,0.279008439,0.448839662,0.419303797,0.838080169,0.288502110,0.212552743,0.537447257,0.501582278,0.109704641,0.463080169,0.463080169,0.709388186,0.332278481,0.790084388,0.982067511,1.000000000,1.000000000,1.000000000,0.814873418,0.413765823,0.566455696,0.876582278,0.982594937,1.000000000,1.000000000,1.000000000,1.000000000,0.903876582,0.628790876,0.484177215,0.741561181,0.867088608,0.693565401,0.789029536,0.646888186,0.568037975,0.669567511,0.623417722,0.213607595,0.542721519,0.167721519,0.766877637,0.922995781,1.000000000,1.000000000,1.000000000,6
0.708333333,0.834915612,0.942510549,0.352320675,0.799578059,0.198312236,0.631856540,0.263713080,0.850210970,1.000000000,1.000000000,1.000000000,1.000000000,1.000000000,1.000000000,0.941962520,0.612782667,0.390295359,0.645569620,0.401898734,0.633966245,0.435654008,0.659282700,0.341772152,0.540084388,0.395042194,0.584915612,0.504219409,0.597046414,0.334915612,0.450949367,0.428270042,0.580168776,0.504219409,0.764240506,0.405590717,0.455168776,0.515822785,0.510548523,0.544831224,0.544831224,0.488924051,0.540611814,0.470464135,0.584388186,0.536919831,0.638185654,0.445675105,0.454113924,0.821729958,0.850738397,0.745253165,0.571202532,0.667721519,0.465189873,0.478375527,0.334915612,0.761075949,0.438291139,0.498945148,0.804852321,0.875000000,0.875000000,0.276898734,0.597573840,0.914029536,0.366561181,0.744725738,0.976793249,1.000000000,1.000000000,1.000000000,0.728243671,0.284315665,0.328059072,0.452004219,0.177742616,0.247890295,0.167721519,0.208333333,16
0.250000000,0.290084388,0.404535865,0.414029536,0.435654008,0.222573840,0.314345992,0.415611814,0.489451477,0.383966245,0.239978903,0.340189873,0.415084388,0.358122363,0.272151899,0.195147679,0.146097046,0.250527426,0.478902954,0.378164557,0.277953586,0.255274262,0.661656118,0.092299578,0.364978903,0.573839662,0.498417722,0.317510549,0.172468354,0.289029536,0.433544304,0.417194093,0.337552743,0.179324895,0.279535865,0.400316456,0.234177215,0.226793249,0.150843882,0.242616034,0.411392405,0.588080169,0.209915612,0.115506329,0.288502110,0.303797468,0.483122363,0.268987342,0.041139241,0.539556962,0.366561181,0.131329114,0.377109705,0.424578059,0.494198312,0.087025316,0.174050633,0.247362869,0.388185654,0.449367089,0.360232068,0.156645570,0.317510549,0.448839662,0.429852321,0.351793249,0.108649789,0.244725738,0.493143460,0.670358650,0.324367089,0.218881857,0.168248945,0.044303797,0.044831224,0.244725738,0.213080169,0.335970464,0.339135021,0.041666667,20
0.208333333,0.828059072,0.254746835,0.236286920,0.132911392,0.100738397,0.240506329,0.280590717,0.320675105,0.305907173,0.298523207,0.501582278,0.425105485,0.421413502,0.287447257,0.248417722,0.275316456,0.834388186,0.418248945,0.232594937,0.263713080,0.143987342,0.197784810,0.388185654,0.446729958,0.412974684,0.322257384,0.558016878,0.402953586,0.248945148,0.339135021,0.390822785,0.440400844,0.478902954,0.303797468,0.305379747,0.056962025,0.091772152,0.094936709,0.194092827,0.160864979,0.392405063,0.200421941,0.198312236,0.277426160,0.239978903,0.273206751,0.302742616,0.276898734,0.104430380,0.089662447,0.183016878,0.231012658,0.384493671,0.164556962,0.321729958,0.304852321,0.065928270,0.021097046,0.214135021,0.077531646,0.236286920,0.238924051,0.195675105,0.253164557,0.190400844,0.099156118,0.466772152,0.664029536,0.276898734,0.117616034,0.137658228,0.133966245,0.610759494,0.225738397,0.498417722,0.196729958,0.120253165,0.290084388,0.208333333,18
0.333333333,0.806434599,0.314873418,0.590189873,0.587025316,0.505801688,0.744725738,0.390295359,0.827004219,0.636075949,0.435917722,0.678797468,0.935126582,1.000000000,1.000000000,1.000000000,1.000000000,0.749324235,0.346486023,0.604957806,0.933544304,1.000000000,1.000000000,0.994231276,0.937368143,0.675995517,0.565928270,0.371835443,0.477848101,0.791139241,0.803270042,0.493934599,0.184599156,0.423786920,0.696729958,0.530590717,0.527162447,0.843354430,1.000000000,0.982364188,0.738989979,0.373252901,0.320147679,0.333333333,0.261603376,0.381856540,0.771624473,0.312763713,0.676687764,0.924314346,0.748549578,0.448312236,0.483122363,0.822784810,1.000000000,0.990506329,0.772151899,0.357594937,0.304852321,0.289029536,0.401898734,0.729430380,1.000000000,0.994725738,0.812763713,0.276898734,0.555379747,0.759229958,0.704641350,0.522679325,0.229430380,0.875527426,0.911919831,0.979957806,0.973628692,0.937236287,0.600210970,0.294303797,0.916666667,0.916666667,14
0.208333333,0.536392405,0.611814346,0.335970464,0.645569620,0.524789030,0.316455696,0.385021097,0.363924051,0.502637131,0.304324895,0.496835443,0.492088608,0.348101266,0.645569620,0.420886076,0.793776371,0.462552743,0.498417722,0.392405063,0.445675105,0.275843882,0.193037975,0.372362869,0.268987342,0.292721519,0.545358650,0.458069620,0.353902954,0.198312236,0.656118143,0.337025316,0.277953586,0.409282700,0.275843882,0.266877637,0.551687764,0.410337553,0.962025316,0.628955696,0.188291139,0.636603376,0.306962025,0.515822785,0.612341772,0.347046414,0.617616034,0.169303797,0.305907173,0.757383966,0.635021097,0.438291139,0.175632911,0.620253165,0.512130802,0.397151899,0.703586498,0.293776371,0.285864979,0.256329114,0.533755274,0.282700422,0.353902954,0.205168776,0.570675105,0.394514768,0.206751055,0.899261603,0.846518987,0.594409283,0.308016878,0.322257384,0.452531646,0.296940928,0.387658228,0.335970464,0.185126582,0.309599156,0.527426160,0.041666667,26
0.291666667,0.418248945,0.291666667,0.394514768,0.332805907,0.450421941,0.276898734,0.458333333,0.243143460,0.421940928,0.230485232,0.443037975,0.293248945,0.387658228,0.292721519,0.274789030,0.340717300,0.319092827,0.375000000,0.314345992,0.291666667,0.260021097,0.291666667,0.372890295,0.302215190,0.244198312,0.108122363,0.199367089,0.829905063,0.394514768,0.475210970,0.667721519,0.588080169,0.273206751,0.406645570,0.575421941,0.244725738,0.233122363,0.360232068,0.121308017,0.195675105,0.432489451,0.228375527,0.613924051,0.280590717,0.167721519,0.210443038,0.176160338,0.617616034,0.373417722,0.419303797,0.165611814,0.241033755,0.614978903,0.252109705,0.263713080,0.248945148,0.208333333,0.239978903,0.243670886,0.212025316,0.135548523,0.207805907,0.196729958,0.203586498,0.357594937,0.503691983,0.048523207,0.479957806,0.205168776,0.074894515,0.189873418,0.146624473,0.290084388,0.586497890,0.148734177,0.154535865,0.128164557,0.746835443,0.166666667,16
0.333333333,0.362869198,0.564345992,0.481540084,0.469409283,0.447257384,0.707805907,0.697257384,0.338607595,0.662974684,0.586497890,0.421413502,0.696202532,0.316983122,0.333333333,0.482594937,0.429324895,0.614451477,0.271624473,0.252637131,0.306434599,0.310654008,0.656645570,0.320675105,0.292194093,0.225738397,0.702004219,0.612341772,0.676160338,0.430907173,0.501582278,0.662447257,0.419831224,0.782700422,0.117088608,0.547468354,0.756329114,0.090189873,0.518459916,0.619725738,0.247890295,0.337025316,0.674050633,0.295358650,0.585443038,0.258438819,0.385548523,0.627109705,0.297468354,0.581751055,0.532172996,0.236814346,0.421940928,0.568037975,0.255801688,0.209388186,0.125000000,0.332805907,0.468354430,0.252637131,0.439345992,0.455168776,0.180379747,0.501582278,0.449367089,0.091244726,0.275316456,0.218881857,0.736814346,0.515822785,0.327004219,0.521624473,0.467827004,0.380801688,0.172468354,0.284810127,0.445147679,0.196202532,0.462552743,0.208333333,26
0.791666667,0.943565401,0.992616034,1.000000000,0.905854430,0.633702532,0.555907173,0.508438819,0.395569620,0.657172996,0.334388186,0.651898734,0.120253165,0.436708861,0.689873418,0.917721519,0.514767932,0.372362869,0.633966245,0.681962025,0.501582278,0.118143460,0.345991561,0.573839662,0.146624473,0.508438819,0.741033755,0.779008439,0.760021097,0.839662447,0.730485232,0.291666667,0.387658228,0.875000000,0.875000000,0.200949367,0.260021097,0.171413502,0.309599156,0.620780591,0.810654008,0.818037975,0.814873418,0.898734177,1.000000000,1.000000000,1.000000000,1.000000000,0.756889504,0.312796677,0.623417722,0.679324895,0.235232068,0.222573840,0.568565401,0.640295359,0.467827004,0.695675105,0.529008439,0.339135021,0.149261603,0.579113924,0.958860759,1.000000000,1.000000000,0.920457542,0.599255011,0.195147679,0.005274262,0.627637131,0.940928270,1.000000000,1.000000000,1.000000000,1.000000000,0.981540084,0.928533755,0.882383966,0.916666667,0.916666667,12
0.250000000,0.399261603,0.668776371,0.550632911,0.366033755,0.383966245,0.523734177,0.702004219,0.546940928,0.271097046,0.300632911,0.628164557,0.500527426,0.251054852,0.171940928,0.447257384,0.388185654,0.451476793,0.323312236,0.279535865,0.151898734,0.160337553,0.386603376,0.516350211,0.431434599,0.310126582,0.263713080,0.311708861,0.643459916,0.399789030,0.230485232,0.321202532,0.304852321,0.374472574,0.251582278,0.268459916,0.311181435,0.522679325,0.453059072,0.146097046,0.276898734,0.303797468,0.442510549,0.414556962,0.268459916,0.330696203,0.449367089,0.443037975,0.197257384,0.036919831,0.379746835,0.087552743,0.321729958,0.229957806,0.246835443,0.361814346,0.362341772,0.367088608,0.136075949,0.340717300,0.311181435,0.363924051,0.302742616,0.195147679,0.306434599,0.368670886,0.248945148,0.284282700,0.121835443,0.250000000,0.431962025,0.300632911,0.170358650,0.337025316,0.468354430,0.411919831,0.251582278,0.350738397,0.327004219,0.291666667,6
0.833333333,0.466244726,0.567510549,0.820675105,0.774789030,0.728902954,0.539556962,0.367088608,0.764767932,0.934599156,1.000000000,1.000000000,1.000000000,0.985825422,0.946400316,0.876054852,0.937236287,0.777953586,0.502637131,0.227320675,0.664029536,0.927215190,1.000000000,1.000000000,1.000000000,1.000000000,1.000000000,1.000000000,1.000000000,0.963607595,0.876054852,0.906645570,0.957805907,1.000000000,1.000000000,1.000000000,1.000000000,1.000000000,1.000000000,1.000000000,1.000000000,1.000000000,1.000000000,1.000000000,1.000000000,1.000000000,1.000000000,1.000000000,1.000000000,1.000000000,1.000000000,1.000000000,1.000000000,1.000000000,1.000000000,0.984177215,0.948839662,0.887658228,0.826476793,0.851002110,0.964926160,0.758438819,0.551951477,0.458860759,0.581223629,0.703586498,0.768987342,0.799578059,0.830168776,0.531645570,0.513976793,0.733122363,0.756065401,0.779008439,0.832805907,0.921940928,0.983122363,0.911392405,0.855485232,0.916666667,14
1.000000000,1.000000000,1.000000000,1.000000000,1.000000000,1.000000000,1.000000000,1.000000000,1.000000000,1.000000000,1.000000000,1.000000000,1.000000000,1.000000000,1.000000000,1.000000000,1.000000000,0.966244726,0.919831224,0.947784810,0.975738397,1.000000000,1.000000000,1.000000000,1.000000000,1.000000000,1.000000000,1.000000000,1.000000000,1.000000000,1.000000000,1.000000000,0.960970464,0.928270042,0.984177215,1.000000000,1.000000000,1.000000000,1.000000000,1.000000000,1.000000000,0.957805907,0.931434599,0.987341772,1.000000000,1.000000000,1.000000000,1.000000000,1.000000000,1.000000000,1.000000000,1.000000000,1.000000000,1.000000000,0.990506329,0.962552743,0.982067511,0.974947257,0.905063291,0.786656118,0.613396624,0.361814346,0.606012658,0.847046414,0.986814346,1.000000000,1.000000000,1.000000000,1.000000000,1.000000000,1.000000000,1.000000000,0.949367089,0.837552743,0.900580169,0.947389241,0.968354430,0.989319620,1.000000000,1.000000000,26
0.583333333,0.408755274,0.632383966,0.472573840,0.606012658,0.270042194,0.183016878,0.196202532,0.478375527,0.351793249,0.660337553,0.237869198,0.733386076,0.435126582,0.406645570,0.365506329,0.538502110,0.340717300,0.440928270,0.230485232,0.756329114,0.952531646,0.530063291,0.400316456,0.504746835,0.479430380,0.883966245,0.983386076,0.734572785,0.316389768,0.529008439,0.266350211,0.675105485,0.868934599,0.775975738,0.374472574,0.423523207,0.230485232,0.690400844,0.989451477,0.980485232,0.552874473,0.345464135,0.572784810,0.420886076,0.323312236,0.467299578,0.381856540,0.542721519,0.402953586,0.229430380,0.479957806,0.233122363,0.294303797,0.278481013,0.737341772,0.930643460,0.953586498,0.630801688,0.217827004,0.702531646,0.228375527,0.580696203,0.487341772,0.574367089,0.250000000,0.193037975,0.068565401,0.669303797,0.050632911,0.571202532,0.871044304,0.848101266,0.898734177,1.000000000,1.000000000,1.000000000,0.833860759,0.229957806,0.666666667,12
0.625000000,0.957278481,0.935654008,0.889240506,0.897679325,0.916666667,0.943037975,0.966244726,0.844409283,0.955168776,0.922468354,0.823312236,0.844409283,0.875000000,0.841244726,0.803797468,0.848101266,0.908755274,0.797995781,0.861286920,0.844936709,0.808016878,0.729957806,0.650843882,0.658227848,0.743670886,0.711497890,0.785337553,0.825421941,0.833333333,0.833333333,0.852848101,0.815928270,0.748417722,0.859177215,0.749472574,0.712552743,0.773734177,0.791666667,0.768459916,0.731540084,0.722046414,0.741033755,0.729430380,0.914029536,0.843881857,0.801687764,0.764767932,0.794303797,0.781118143,0.784282700,0.934599156,0.827004219,0.753164557,0.750000000,0.780590717,0.817510549,0.706751055,0.632383966,0.708333333,0.742616034,0.910337553,0.799578059,0.825949367,0.833333333,0.808544304,0.751582278,0.677742616,0.656645570,0.732594937,0.627109705,0.700949367,0.641877637,0.738924051,0.767932489,0.787974684,0.819092827,0.772679325,0.713080169,0.750000000,16
0.000000000,0.399261603,0.736286920,0.453586498,0.145042194,0.499472574,0.340189873,0.112869198,0.584915612,0.520569620,0.640822785,0.294303797,0.453586498,0.611814346,0.544303797,0.680907173,0.327004219,0.136075949,0.522151899,0.571202532,0.548523207,0.219936709,0.482594937,0.742088608,0.172468354,0.459388186,0.229430380,0.260021097,0.535864979,0.172995781,0.437763713,0.405063291,0.343354430,0.255274262,0.029535865,0.255274262,0.054852321,0.481012658,0.107067511,0.353375527,0.353111814,0.496835443,0.383438819,0.458069620,0.352320675,0.146097046,0.694092827,0.406645570,0.532172996,0.373417722,0.415084388,0.507647679,0.536392405,0.276371308,0.563818565,0.297468354,0.811708861,0.103375527,0.340717300,0.456223629,0.273734177,0.103902954,0.412447257,0.236814346,0.407700422,0.604957806,0.148734177,0.315400844,0.391877637,0.200949367,0.402953586,0.413502110,0.428797468,0.622362869,0.104957806,0.466244726,0.429324895,0.268459916,0.303270042,0.583333333,10
0.166666667,0.540084388,0.819092827,0.751054852,0.625000000,0.705696203,0.750000000,0.534810127,0.279008439,0.055907173,0.525843882,0.739978903,0.747890295,0.146097046,0.188818565,0.392932489,0.697257384,0.741033755,0.098628692,0.290611814,0.211497890,0.675105485,0.563291139,0.215189873,0.636603376,0.181962025,0.166139241,0.147679325,0.625000000,0.715717300,0.755274262,0.741561181,0.376054852,0.226793249,0.692510549,0.625000000,0.695675105,0.597573840,0.252109705,0.521097046,0.590189873,0.316455696,0.274261603,0.618670886,0.663502110,0.682489451,0.052215190,0.218881857,0.241033755,0.073312236,0.462552743,0.633966245,0.084388186,0.250527426,0.299050633,0.042194093,0.488396624,0.678270042,0.784282700,0.412447257,0.311181435,0.066983122,0.493143460,0.697257384,0.700421941,0.354430380,0.300632911,0.054324895,0.196729958,0.218881857,0.665084388,0.655590717,0.737341772,0.835443038,0.606540084,0.354957806,0.086497890,0.418776371,0.219936709,0.375000000,14
0.166666667,0.313291139,0.272151899,0.150843882,0.143459916,0.317510549,0.250000000,0.152953586,0.183016878,0.325949367,0.181962025,0.195675105,0.412974684,0.442510549,0.141350211,0.165084388,0.415084388,0.365506329,0.181962025,0.066983122,0.188818565,0.447257384,0.478375527,0.346518987,0.429324895,0.316983122,0.150843882,0.210970464,0.281645570,0.538502110,0.408227848,0.304852321,0.061708861,0.272679325,0.088080169,0.209915612,0.409810127,0.389767932,0.341244726,0.347046414,0.240506329,0.037974684,0.096518987,0.208860759,0.389767932,0.485759494,0.414556962,0.188818565,0.020042194,0.570675105,0.467299578,0.291139241,0.157172996,0.082278481,0.263185654,0.351793249,0.452531646,0.507383966,0.156118143,0.070147679,0.318565401,0.237869198,0.472573840,0.801687764,0.667194093,0.204113924,0.231540084,0.114978903,0.018987342,0.164556962,0.032700422,0.441983122,0.436181435,0.405590717,0.220464135,0.138185654,0.167194093,0.361814346,0.461497890,0.458333333,22
0.666666667,0.818037975,0.956751055,0.935126582,0.796413502,0.219936709,0.672468354,0.849947257,0.914820675,0.929852321,0.859177215,0.781118143,0.689345992,0.646097046,0.647151899,0.809071730,0.916666667,0.701476793,0.327004219,0.719409283,0.600210970,0.400316456,0.200949367,0.748945148,0.871308017,0.795886076,0.585970464,0.871835443,0.755274262,0.824894515,0.750000000,0.764767932,0.788502110,0.635548523,0.654535865,0.638713080,0.712552743,0.757911392,0.726793249,0.729957806,0.708333333,0.522679325,0.474156118,0.225210970,0.488924051,0.885548523,0.616033755,0.271097046,0.208333333,0.566983122,0.887130802,0.292194093,0.168776371,0.208860759,0.243670886,0.150843882,0.448312236,0.694092827,0.808016878,0.708333333,0.708333333,0.510548523,0.171940928,0.464135021,0.666666667,0.608122363,0.647151899,0.341772152,0.242616034,0.597573840,0.735759494,0.779008439,0.852848101,0.842827004,0.934599156,0.958333333,0.884493671,0.104957806,0.522679325,0.875000000,12
0.000000000,0.149789030,0.238924051,0.295886076,0.383438819,0.364451477,0.347046414,0.268987342,0.149789030,0.062763713,0.134493671,0.188818565,0.433016878,0.642932489,0.379219409,0.253164557,0.216244726,0.136075949,0.088080169,0.165084388,0.152953586,0.270569620,0.411919831,0.178270042,0.194092827,0.117616034,0.066983122,0.056962025,0.152426160,0.175632911,0.250527426,0.275843882,0.157700422,0.213080169,0.238924051,0.285337553,0.241033755,0.219936709,0.141350211,0.410864979,0.300105485,0.206223629,0.125527426,0.566983122,0.707278481,0.593881857,0.129746835,0.354430380,0.390822785,0.172468354,0.214135021,0.196729958,0.404008439,0.063818565,0.569092827,0.610759494,0.676687764,0.130274262,0.770569620,0.355485232,0.335443038,0.420358650,0.410864979,0.242088608,0.180907173,0.087025316,0.097573840,0.650316456,0.645042194,0.092827004,0.676687764,0.357594937,0.140822785,0.148734177,0.088080169,0.071202532,0.151371308,0.295886076,0.501582278,0.333333333,18
1.000000000,1.000000000,1.000000000,1.000000000,1.000000000,1.000000000,1.000000000,1.000000000,1.000000000,1.000000000,1.000000000,1.000000000,1.000000000,1.000000000,1.000000000,0.656645570,0.194620253,0.542721519,0.862869198,1.000000000,1.000000000,1.000000000,1.000000000,1.000000000,1.000000000,1.000000000,1.000000000,1.000000000,0.988924051,0.959388186,0.991033755,1.000000000,1.000000000,1.000000000,1.000000000,1.000000000,1.000000000,1.000000000,1.000000000,1.000000000,1.000000000,1.000000000,1.000000000,0.945147679,0.951476793,0.981540084,0.902426160,0.823312236,0.886603376,0.883438819,0.472046414,0.672468354,0.688291139,0.593354430,0.498945148,0.435654008,0.483122363,0.578059072,0.639240506,0.227848101,0.409810127,0.686708861,0.829113924,0.971518987,0.721518987,0.419303797,0.266350211,0.614451477,0.828059072,0.815400844,0.625527426,0.435654008,0.530590717,0.583333333,0.574894515,0.543248945,0.541666667,0.481540084,0.416666667,0.416666667,14
0.791666667,1.000000000,1.000000000,1.000000000,1.000000000,1.000000000,0.993670886,0.943565401,0.883438819,0.869198312,0.697784810,0.666666667,0.514767932,0.248945148,0.534810127,0.797468354,0.908755274,0.976265823,0.943037975,0.935126582,0.894514768,0.481540084,0.440400844,0.333860759,0.403481013,0.662447257,0.324367089,0.523734177,0.767405063,0.302215190,0.536392405,0.764767932,0.724156118,0.847573840,0.803270042,0.791666667,0.222046414,0.439873418,0.538502110,0.870780591,0.792194093,0.809599156,0.229430380,0.563818565,0.782172996,0.725738397,0.819620253,0.765822785,0.797468354,0.526371308,0.205168776,0.432489451,0.272151899,0.414556962,0.265295359,0.209915612,0.083333333,0.304852321,0.680907173,0.524261603,0.422995781,0.787447257,0.934599156,0.495253165,0.337552743,0.658755274,0.819620253,0.775316456,0.329113924,0.477848101,0.647679325,0.633438819,0.727848101,0.714662447,0.817510549,0.833333333,0.871835443,0.795886076,0.872890295,0.875000000,18
0.708333333,0.331751055,0.334915612,0.378164557,0.413502110,0.391877637,0.378164557,0.321729958,0.406118143,0.347046414,0.221518987,0.439873418,0.442510549,0.437763713,0.355485232,0.415611814,0.404008439,0.333333333,0.259493671,0.285864979,0.390295359,0.425105485,0.332278481,0.328059072,0.520042194,0.348628692,0.214662447,0.403481013,0.634493671,0.313818565,0.237869198,0.378691983,0.524261603,0.268987342,0.285864979,0.358649789,0.433544304,0.375000000,0.280063291,0.488396624,0.488396624,0.256856540,0.358122363,0.465717300,0.418776371,0.199894515,0.270569620,0.399261603,0.398734177,0.162447257,0.357594937,0.467827004,0.348628692,0.152426160,0.209388186,0.368670886,0.279535865,0.255801688,0.318037975,0.473628692,0.446729958,0.209388186,0.389767932,0.541139241,0.464135021,0.283227848,0.406645570,0.400843882,0.469409283,0.229430380,0.425632911,0.533227848,0.420358650,0.299578059,0.322784810,0.534282700,0.487869198,0.337552743,0.392405063,0.875000000,18
0.250000000,0.279008439,0.494198312,0.303797468,0.130801688,0.509493671,0.296413502,0.343354430,0.441455696,0.289029536,0.246835443,0.237869198,0.243143460,0.118670886,0.186708861,0.240506329,0.680379747,0.319620253,0.188818565,0.314345992,0.172995781,0.304852321,0.409810127,0.289029536,0.231012658,0.223101266,0.292194093,0.301160338,0.419831224,0.293776371,0.161919831,0.159810127,0.310654008,0.263713080,0.152426160,0.400316456,0.250000000,0.186708861,0.379219409,0.325949367,0.255274262,0.344936709,0.398206751,0.442510549,0.309599156,0.319092827,0.093881857,0.229430380,0.440400844,0.217827004,0.291666667,0.351265823,0.681962025,0.624472574,0.233122363,0.171940928,0.494725738,0.536919831,0.360759494,0.188818565,0.265295359,0.474156118,0.208860759,0.143459916,0.328059072,0.436181435,0.481012658,0.301160338,0.055907173,0.327004219,0.197257384,0.433544304,0.520042194,0.460443038,0.128164557,0.190400844,0.466772152,0.361814346,0.195675105,0.125000000,14
0.375000000,0.466244726,0.397151899,0.451476793,0.480485232,0.396097046,0.391350211,0.398734177,0.338607595,0.229430380,0.393459916,0.295358650,0.407700422,0.439345992,0.456751055,0.424050633,0.481012658,0.271097046,0.458333333,0.293776371,0.286919831,0.344936709,0.493670886,0.290084388,0.333333333,0.217299578,0.272679325,0.520042194,0.264240506,0.101265823,0.306434599,0.275843882,0.433544304,0.577004219,0.354957806,0.410337553,0.467299578,0.326476793,0.107594937,0.089135021,0.532172996,0.471518987,0.481540084,0.625000000,0.508438819,0.666666667,0.746835443,0.267405063,0.437236287,0.235759494,0.455168776,0.354957806,0.407700422,0.320675105,0.452531646,0.177215190,0.419831224,0.175105485,0.387130802,0.347573840,0.334388186,0.350210970,0.417194093,0.275843882,0.325949367,0.293248945,0.866033755,0.227848101,0.496308017,0.648734177,0.379219409,0.166666667,0.335443038,0.341772152,0.340189873,0.102848101,0.369198312,0.325949367,0.408755274,0.208333333,26
0.833333333,0.491033755,0.513185654,0.430907173,0.148734177,0.513185654,0.428270042,0.764240506,0.479430380,0.495780591,0.559071730,0.315400844,0.481540084,0.486814346,0.221518987,0.715189873,0.432489451,0.321729958,0.579113924,0.371308017,0.405590717,0.632383966,0.240506329,0.530590717,0.521624473,0.225738397,0.589662447,0.407700422,0.492352321,0.210970464,0.528481013,0.467827004,0.135021097,0.698839662,0.359177215,0.376054852,0.654008439,0.293248945,0.753164557,0.946729958,0.242088608,0.812763713,0.378164557,0.734177215,0.324894515,0.592299578,0.112869198,0.580696203,0.323839662,0.343881857,0.513185654,0.966772152,0.789556962,0.198575949,0.732594937,0.410337553,0.344409283,0.707278481,0.236286920,0.463607595,0.545358650,0.131856540,0.544831224,0.344409283,0.218354430,0.657700422,0.350738397,0.336497890,0.559599156,0.199894515,0.398734177,0.488396624,0.104430380,0.404008439,0.461497890,0.255801688,0.417194093,0.356012658,0.271097046,0.333333333,10
0.291666667,0.291666667,0.291666667,0.291666667,0.252109705,0.952531646,0.845991561,0.111814346,0.079113924,0.378691983,0.198312236,0.561181435,0.377637131,0.751054852,0.970464135,0.822784810,0.556962025,0.598101266,0.689345992,0.929852321,0.346518987,0.400316456,0.319620253,0.072784810,0.232067511,0.247890295,0.543776371,0.900316456,1.000000000,0.808808017,0.420094937,0.553797468,0.836761603,0.853375527,0.781381857,0.564345992,0.620780591,0.902426160,1.000000000,1.000000000,0.911293513,0.606111551,0.375000000,0.375000000,0.448839662,0.541666667,0.367616034,0.175632911,0.250000000,0.400316456,0.741429325,0.775184599,0.410073840,0.372362869,0.851002110,0.985495781,1.000000000,1.000000000,0.951196598,0.746851925,0.461497890,0.298523207,0.689345992,0.932489451,0.571729958,0.306962025,0.821202532,0.200949367,0.677215190,0.984177215,0.889240506,0.983122363,0.829641350,0.747362869,0.226793249,0.493670886,0.376582278,0.411392405,0.207278481,0.125000000,18
0.750000000,0.910337553,0.801160338,0.791666667,0.827004219,0.799578059,0.727320675,0.891877637,0.900316456,0.628164557,0.629219409,0.781118143,0.787974684,0.792194093,0.794303797,0.767932489,0.840717300,0.872362869,0.765295359,0.708333333,0.718354430,0.758438819,0.791666667,0.781118143,0.689873418,0.516877637,0.830168776,0.589662447,0.661392405,0.853902954,0.839135021,0.799050633,0.922468354,0.709388186,0.713607595,0.833860759,0.769514768,0.584388186,0.500000000,0.586497890,0.686708861,0.652953586,0.633966245,0.677742616,0.611286920,0.583333333,0.593881857,0.660864979,0.762130802,0.648206751,0.787447257,0.744725738,0.671940928,0.872362869,0.756329114,0.787974684,0.755274262,0.924050633,0.692510549,0.625000000,0.655063291,0.495780591,0.658755274,0.639767932,0.589135021,0.625000000,0.625000000,0.511075949,0.496835443,0.619198312,0.498945148,0.416666667,0.483122363,0.666666667,0.642932489,0.573312236,0.745253165,0.717827004,0.833333333,0.833333333,14
0.625000000,0.336497890,0.224156118,0.369725738,0.510021097,0.447257384,0.255801688,0.308544304,0.542721519,0.390822785,0.245780591,0.347046414,0.497890295,0.581751055,0.227320675,0.330696203,0.241033755,0.502109705,0.377109705,0.254746835,0.409282700,0.499472574,0.410337553,0.203586498,0.336497890,0.447784810,0.309599156,0.128164557,0.219936709,0.601793249,0.309071730,0.264767932,0.264767932,0.639767932,0.381856540,0.221518987,0.329113924,0.507383966,0.478902954,0.216772152,0.153481013,0.358649789,0.440928270,0.342299578,0.297995781,0.411392405,0.504746835,0.239451477,0.150843882,0.291139241,0.401898734,0.328059072,0.169831224,0.331751055,0.488396624,0.223101266,0.036919831,0.316455696,0.507911392,0.363396624,0.135548523,0.238924051,0.505274262,0.365506329,0.493670886,0.503164557,0.209388186,0.265295359,0.468881857,0.662974684,0.331223629,0.313291139,0.445675105,0.503691983,0.209388186,0.140822785,0.320147679,0.482594937,0.813291139,0.708333333,2
0.666666667,0.508438819,0.609704641,0.726793249,0.665084388,0.633438819,0.555379747,0.579113924,0.768987342,0.958860759,1.000000000,1.000000000,1.000000000,1.000000000,1.000000000,1.000000000,1.000000000,1.000000000,1.000000000,1.000000000,1.000000000,1.000000000,1.000000000,0.980485232,0.967827004,0.999472574,1.000000000,1.000000000,0.988924051,0.954113924,0.827531646,0.564873418,0.337025316,0.268459916,0.489978903,0.675105485,0.849156118,1.000000000,1.000000000,1.000000000,0.968354430,0.922468354,0.954113924,0.985759494,0.982594937,0.950949367,0.919303797,0.757120253,0.583069620,0.458333333,0.458333333,0.733649789,0.915611814,0.989451477,0.958860759,0.990506329,0.983386076,0.953586498,0.910337553,0.815400844,0.815400844,0.874472574,0.962025316,0.993670886,1.000000000,1.000000000,1.000000000,1.000000000,0.971420095,0.906151108,0.836761603,0.852584388,0.868407173,0.838080169,0.791666667,0.791666667,0.791666667,0.791666667,0.841772152,1.000000000,16
0.458333333,0.275843882,0.457278481,0.409282700,0.357067511,0.497890295,0.360232068,0.423523207,0.478375527,0.850210970,0.907172996,0.456223629,0.363924051,0.440400844,0.507383966,0.264240506,0.514767932,0.388185654,0.316983122,0.549050633,0.216772152,0.375000000,0.412974684,0.211497890,0.334388186,0.140822785,0.363924051,0.372362869,0.248945148,0.348628692,0.853375527,0.118143460,0.288502110,0.460443038,0.426160338,0.553797468,0.359177215,0.439873418,0.424050633,0.724683544,0.216772152,0.367616034,0.457278481,0.375000000,0.754746835,0.846518987,0.717299578,0.905854430,0.880801688,0.797995781,0.771097046,0.861814346,0.727848101,0.800105485,0.794303797,0.940928270,0.776371308,0.689345992,0.708333333,0.708333333,0.772679325,0.710970464,0.861286920,0.979957806,0.198312236,0.617088608,0.755274262,0.428270042,0.339135021,0.657172996,0.176687764,0.369198312,0.340189873,0.734704641,0.257383966,0.426687764,0.324367089,0.722046414,0.526371308,0.416666667,12
0.125000000,0.681962025,0.623945148,0.415084388,0.462552743,0.688291139,0.216244726,0.738396624,0.491561181,0.636075949,0.724683544,0.438291139,0.715717300,0.959388186,1.000000000,0.839398734,0.518196203,0.318037975,0.759493671,0.968354430,0.763713080,0.462552743,0.465717300,0.687236287,0.443565401,0.199894515,0.647679325,0.902953586,0.909282700,0.871308017,0.996703586,0.953190928,0.833201477,0.720464135,0.734177215,0.873417722,1.000000000,1.000000000,1.000000000,1.000000000,0.982594937,0.968881857,0.999077004,0.990374473,0.934203586,0.966244726,1.000000000,1.000000000,0.962289030,0.651173523,0.303863397,0.461497890,0.735759494,0.898206751,0.963080169,0.997890295,1.000000000,1.000000000,1.000000000,0.793776371,0.344409283,0.692510549,0.342827004,0.540084388,0.757120253,0.844145570,0.835443038,0.348101266,0.434599156,0.781118143,0.898206751,0.886075949,0.974683544,0.835443038,0.353375527,0.359704641,0.684071730,0.917194093,0.833333333,0.833333333,16
0.166666667,0.462025316,0.741297468,0.935917722,1.000000000,1.000000000,1.000000000,1.000000000,0.996971420,0.966685621,0.851780887,0.833333333,0.938818565,0.827004219,0.751054852,0.881065401,0.899525316,0.919303797,0.956223629,0.993143460,1.000000000,1.000000000,1.000000000,1.000000000,1.000000000,1.000000000,1.000000000,1.000000000,0.932489451,0.771624473,0.781118143,0.911392405,0.911392405,0.760021097,0.702004219,0.088607595,0.457805907,0.271097046,0.376054852,0.342299578,0.286919831,0.278481013,0.247362869,0.499472574,0.130274262,0.270569620,0.196729958,0.328059072,0.305907173,0.295358650,0.328059072,0.204113924,0.510021097,0.140822785,0.337025316,0.558544304,0.857594937,0.936708861,0.907700422,0.969936709,1.000000000,0.997890295,0.960970464,0.992616034,1.000000000,0.990704114,0.931764241,0.875000000,0.896097046,0.964135021,1.000000000,1.000000000,1.000000000,1.000000000,1.000000000,1.000000000,1.000000000,1.000000000,0.966772152,0.708333333,14
0.666666667,0.397151899,0.763713080,0.511603376,0.416666667,0.339135021,0.382383966,0.341244726,0.502637131,0.720991561,0.388713080,0.900052743,0.572784810,0.256856540,0.757383966,0.970991561,1.000000000,0.988924051,0.888779008,0.902953586,0.958333333,0.958333333,0.738924051,0.397151899,0.682489451,0.547732068,0.426160338,0.772679325,0.354957806,0.557489451,0.820411392,0.700817511,0.421677215,0.435654008,0.391877637,0.324367089,0.564345992,0.269514768,0.670358650,0.379746835,0.495253165,0.352320675,0.400843882,0.584915612,0.796677215,0.632383966,0.500527426,0.667194093,0.789029536,0.777953586,0.966772152,1.000000000,0.997890295,0.959388186,0.883438819,0.977848101,0.968881857,0.930379747,0.953850211,0.973760549,0.964135021,0.973628692,1.000000000,1.000000000,0.950685654,0.615506329,0.172732068,0.394514768,0.416666667,0.669831224,0.436708861,0.595464135,0.747362869,0.670358650,0.530063291,0.501582278,0.658755274,0.296940928,0.791666667,0.791666667,22
0.791666667,0.608122363,0.619725738,0.767405063,0.981540084,0.881197257,0.742747890,0.625000000,0.625000000,0.675632911,0.736814346,0.772679325,0.589135021,0.711761603,0.874472574,0.928006329,0.981540084,1.000000000,1.000000000,1.000000000,0.992879747,0.924314346,0.795358650,0.611814346,0.609177215,0.625000000,0.658227848,0.933544304,1.000000000,1.000000000,1.000000000,1.000000000,1.000000000,1.000000000,1.000000000,0.941983122,0.952531646,1.000000000,1.000000000,1.000000000,1.000000000,1.000000000,1.000000000,1.000000000,1.000000000,1.000000000,1.000000000,1.000000000,1.000000000,1.000000000,1.000000000,0.963080169,0.898206751,0.821729958,0.745253165,0.613396624,0.520042194,0.917721519,0.866561181,0.698312236,0.547995781,0.639767932,0.785601266,0.909018987,0.947257384,0.985495781,1.000000000,1.000000000,1.000000000,1.000000000,0.950949367,0.838080169,0.623945148,0.583333333,0.658755274,0.818433544,0.887262658,0.956091772,1.000000000,1.000000000,4
0.000000000,0.443037975,0.612605485,0.741824895,0.837025316,0.875000000,0.861814346,0.841772152,0.886075949,0.996835443,0.964135021,0.864978903,0.806962025,0.856540084,0.916666667,0.916666667,0.901898734,0.841244726,0.952004219,0.923523207,0.886603376,0.875000000,0.875000000,0.875000000,0.875000000,0.875000000,0.870253165,0.759493671,0.750000000,0.837025316,0.899261603,0.838607595,0.779535865,0.813291139,0.760548523,0.835443038,0.983122363,0.803797468,0.694092827,0.713080169,0.657700422,0.623945148,0.800632911,0.829113924,0.792194093,0.828059072,0.738396624,0.762130802,0.703059072,0.729430380,0.887658228,0.885021097,0.746835443,0.709915612,0.743670886,0.780590717,0.869198312,0.937763713,0.925632911,0.909810127,0.965717300,0.793776371,0.830696203,0.833333333,0.921940928,0.834388186,0.689873418,0.655590717,0.666139241,0.570675105,0.747890295,0.674050633,0.566983122,0.741033755,0.857067511,0.685126582,0.486814346,0.570147679,0.666666667,0.666666667,0
0.625000000,0.642405063,0.645569620,0.566455696,0.763713080,0.563291139,0.743670886,0.547995781,0.633438819,0.353902954,0.275316456,0.382911392,0.472046414,0.694620253,0.769778481,0.736286920,0.223628692,0.493143460,0.308544304,0.053797468,0.017932489,0.462025316,0.112341772,0.440400844,0.027426160,0.030063291,0.101265823,0.631329114,0.342299578,0.216244726,0.409282700,0.467299578,0.619198312,0.500527426,0.611286920,0.339135021,0.826476793,0.348628692,0.624208861,0.458069620,0.303797468,0.397679325,0.352320675,0.662447257,0.333333333,0.289029536,0.352320675,0.511603376,0.530590717,0.446202532,0.336497890,0.292194093,0.676687764,0.581751055,0.537183544,0.893196203,0.717563291,0.314082278,0.760021097,0.473628692,0.729957806,0.459388186,0.375000000,0.600210970,0.666666667,0.647679325,0.366824895,0.594936709,0.274525316,0.530063291,0.916139241,0.995253165,0.643855485,0.187236287,0.367616034,0.467827004,0.205168776,0.293776371,0.590189873,0.458333333,0
0.458333333,0.571202532,0.774261603,0.443565401,0.252637131,0.465189873,0.550105485,0.341772152,0.075949367,0.431962025,0.545886076,0.395569620,0.299578059,0.665084388,0.628164557,0.306962025,0.347573840,0.516877637,0.455168776,0.254746835,0.360759494,0.507911392,0.450949367,0.263185654,0.322257384,0.491561181,0.419831224,0.131856540,0.241033755,0.476793249,0.381856540,0.248945148,0.470464135,0.712552743,0.380274262,0.297995781,0.620253165,0.515822785,0.257383966,0.296940928,0.619725738,0.508966245,0.392405063,0.340189873,0.452004219,0.423523207,0.266350211,0.413502110,0.546413502,0.285337553,0.262658228,0.322784810,0.454641350,0.187236287,0.208333333,0.287447257,0.356540084,0.180907173,0.150316456,0.311708861,0.387658228,0.225738397,0.260021097,0.473101266,0.452004219,0.233122363,0.261075949,0.459915612,0.366561181,0.204113924,0.234177215,0.491033755,0.498417722,0.199894515,0.284810127,0.388185654,0.296940928,0.137658228,0.263713080,0.625000000,2
0.333333333,0.670886076,0.364978903,0.440400844,0.426687764,0.179324895,0.462025316,0.766877637,0.226793249,0.698312236,0.766877637,0.411919831,0.687236287,0.377637131,0.717299578,0.881329114,0.492088608,0.301160338,0.368143460,0.366033755,0.698839662,0.462552743,0.225738397,0.408227848,0.621308017,0.574367089,0.224156118,0.546413502,0.463080169,0.537974684,0.772151899,0.446202532,0.868670886,0.691983122,0.454641350,0.661392405,0.436708861,0.702004219,0.503164557,0.649789030,0.426687764,0.389767932,0.294831224,0.290611814,0.641877637,0.418776371,0.547468354,0.779008439,0.149789030,0.527426160,0.496308017,0.649261603,0.292194093,0.382911392,0.552742616,0.689873418,0.297468354,0.049050633,0.908755274,0.367616034,0.454113924,0.246308017,0.655063291,0.349156118,0.792721519,0.489978903,0.725210970,0.576476793,0.313818565,0.216772152,0.406909283,0.812763713,0.727782173,0.337354958,0.283227848,0.235232068,0.493670886,0.245780591,0.200421941,0.375000000,8
0.208333333,0.853902954,0.505274262,0.814345992,0.527953586,0.686181435,0.609704641,0.435654008,0.899261603,0.966772152,1.000000000,1.000000000,1.000000000,0.790183281,0.402525053,0.263713080,0.371308017,0.376054852,0.494198312,0.765295359,0.651371308,0.423523207,0.214662447,0.328586498,0.551687764,0.289029536,0.237341772,0.275316456,0.280854430,0.261867089,0.477848101,0.853375527,0.625527426,0.449894515,0.848628692,0.807357595,0.759889241,0.299050633,0.626054852,0.962025316,1.000000000,1.000000000,1.000000000,0.942395174,0.647168381,0.216772152,0.824367089,0.700949367,0.448839662,0.608122363,0.818169831,0.892932489,0.907172996,0.941983122,0.914820675,0.548786920,0.191983122,0.799578059,0.940928270,0.990506329,1.000000000,0.801687764,0.434599156,0.434599156,0.777426160,0.863396624,0.945675105,0.872362869,0.834388186,0.759493671,0.683544304,0.489451477,0.649261603,0.835970464,0.911919831,0.677742616,0.299578059,0.622362869,0.394514768,0.166666667,4
0.333333333,0.750527426,0.988396624,0.734704641,0.472046414,0.271624473,0.406645570,0.496835443,0.342299578,0.167194093,0.444092827,0.400316456,0.158755274,0.318565401,0.408227848,0.254219409,0.938291139,0.291666667,0.353902954,0.311181435,0.309599156,0.217827004,0.672995781,0.280063291,0.278481013,0.293248945,0.950421941,0.477320675,0.529008439,0.331751055,0.754746835,0.308016878,0.853902954,0.217827004,0.372362869,0.560126582,0.833333333,0.217299578,0.411392405,0.380801688,0.615506329,0.313291139,0.230485232,0.310126582,0.398206751,0.326476793,0.258966245,0.469936709,0.380274262,0.449894515,0.510548523,0.447784810,0.389240506,0.275843882,0.524789030,0.208333333,0.075421941,0.352848101,0.333333333,0.239451477,0.210970464,0.270042194,0.225738397,0.185654008,0.242616034,0.491561181,0.488924051,0.201476793,0.305379747,0.255274262,0.333860759,0.439345992,0.332805907,0.212025316,0.121308017,0.208333333,0.415084388,0.602848101,0.327004219,0.208333333,16
0.291666667,0.319092827,0.441455696,0.411919831,0.328586498,0.321202532,0.372890295,0.332278481,0.330168776,0.388713080,0.316983122,0.313818565,0.393987342,0.525843882,0.462552743,0.342299578,0.304324895,0.257911392,0.452004219,0.437236287,0.392932489,0.372890295,0.291666667,0.266877637,0.378691983,0.293248945,0.203586498,0.302742616,0.324894515,0.454641350,0.436181435,0.352320675,0.275316456,0.380274262,0.439873418,0.486286920,0.248417722,0.183544304,0.399261603,0.361286920,0.395042194,0.303797468,0.141877637,0.262658228,0.338607595,0.401898734,0.366033755,0.191983122,0.204641350,0.343881857,0.373417722,0.408227848,0.208860759,0.296940928,0.375527426,0.332278481,0.305907173,0.311708861,0.296940928,0.158755274,0.270569620,0.389767932,0.390295359,0.227320675,0.284282700,0.335443038,0.328059072,0.389240506,0.282172996,0.425632911,0.301687764,0.206751055,0.276371308,0.206223629,0.117088608,0.205168776,0.274261603,0.356540084,0.319092827,0.291666667,6
0.333333333,0.333333333,0.269514768,0.408227848,0.257911392,0.375000000,0.275843882,0.250000000,0.395569620,0.331751055,0.359704641,0.830696203,0.224156118,0.367616034,0.284810127,0.291666667,0.385021097,0.353375527,0.160864979,0.291666667,0.295886076,0.222046414,0.367616034,0.348628692,0.178270042,0.306434599,0.022151899,0.284282700,0.236286920,0.302215190,0.169831224,0.101793249,0.311708861,0.185654008,0.250000000,0.154008439,0.540611814,0.368670886,0.199894515,0.414029536,0.276371308,0.333333333,0.194092827,0.190400844,0.179324895,0.328586498,0.240506329,0.227848101,0.228375527,0.332278481,0.225738397,0.198839662,0.357594937,0.159282700,0.309071730,0.570147679,0.633438819,0.304324895,0.246308017,0.436181435,0.485232068,0.241033755,0.211497890,0.249472574,0.125000000,0.361286920,0.416139241,0.200421941,0.282172996,0.195147679,0.455168776,0.094409283,0.243143460,0.176687764,0.235759494,0.166666667,0.266350211,0.250000000,0.280590717,0.250000000,6
0.291666667,0.203059072,0.340717300,0.599156118,0.687763713,0.640295359,0.509493671,0.302742616,0.655063291,0.754219409,0.606540084,0.458860759,0.247890295,0.181962025,0.506856540,0.792194093,0.827136076,0.598233122,0.369330169,0.584388186,0.931434599,0.990506329,1.000000000,0.931962025,0.770437764,0.456619198,0.207805907,0.122890295,0.536392405,0.833860759,1.000000000,1.000000000,1.000000000,1.000000000,1.000000000,1.000000000,1.000000000,1.000000000,1.000000000,1.000000000,1.000000000,1.000000000,1.000000000,1.000000000,1.000000000,1.000000000,1.000000000,1.000000000,1.000000000,1.000000000,1.000000000,1.000000000,1.000000000,1.000000000,1.000000000,1.000000000,1.000000000,1.000000000,1.000000000,1.000000000,0.977848101,0.968354430,0.997890295,1.000000000,1.000000000,1.000000000,1.000000000,1.000000000,1.000000000,1.000000000,1.000000000,1.000000000,1.000000000,1.000000000,1.000000000,1.000000000,1.000000000,1.000000000,1.000000000,1.000000000,4
1.000000000,1.000000000,0.987078059,0.970200422,0.968354430,1.000000000,1.000000000,1.000000000,1.000000000,1.000000000,1.000000000,1.000000000,1.000000000,1.000000000,1.000000000,0.993670886,0.959915612,0.990506329,0.969672996,0.919303797,0.883438819,0.917721519,0.985232068,0.894514768,0.842563291,0.859440928,0.877637131,0.911392405,0.945147679,0.958333333,0.952004219,0.935126582,0.918248945,0.794303797,0.772679325,0.850738397,0.958333333,0.958333333,0.892932489,0.627109705,0.441455696,0.407700422,0.385548523,0.723101266,0.710970464,0.742616034,0.877637131,1.000000000,1.000000000,0.970991561,0.937236287,0.903481013,0.877637131,0.894514768,0.911392405,0.870253165,0.833333333,0.855485232,0.956751055,0.958333333,0.882383966,0.850738397,0.875000000,0.870253165,0.768987342,0.804852321,0.872362869,0.939873418,0.992616034,0.925105485,0.946202532,0.871835443,0.846518987,0.903217300,0.582542194,0.261867089,0.427742616,0.450949367,0.206223629,0.375000000,4
0.666666667,0.362869198,0.239978903,0.333860759,0.479957806,0.412447257,0.344936709,0.668776371,0.572784810,0.412974684,0.737869198,0.974156118,1.000000000,0.861550633,0.586497890,0.361286920,0.732594937,0.428270042,0.454641350,0.705168776,0.966772152,1.000000000,1.000000000,1.000000000,1.000000000,1.000000000,0.979562236,0.717958861,0.385152954,0.270569620,0.266350211,0.267668776,0.689609705,0.920358650,0.958399262,0.911985759,0.888713080,0.956223629,0.991033755,1.000000000,1.000000000,1.000000000,1.000000000,1.000000000,1.000000000,0.948081487,0.838821862,0.725738397,0.911392405,0.901239451,0.859045359,0.872890295,0.958333333,0.958333333,0.802742616,0.889240506,0.954113924,0.875000000,0.875000000,0.725474684,0.573575949,0.604430380,0.778481013,0.878164557,0.945675105,0.944620253,0.927742616,0.928270042,0.960179325,0.977056962,0.993934599,0.978375527,0.738924051,0.332278481,0.568565401,0.757383966,0.842167722,0.884361814,0.932489451,1.000000000,2
0.791666667,0.791666667,0.521097046,0.635021097,0.680907173,0.465717300,0.277953586,0.216772152,0.503691983,0.775052743,0.942774262,1.000000000,1.000000000,1.000000000,0.992055643,0.857001582,0.449482463,0.597046414,0.379746835,0.214135021,0.669171941,0.913370253,0.994066456,1.000000000,1.000000000,1.000000000,1.000000000,1.000000000,1.000000000,1.000000000,1.000000000,1.000000000,1.000000000,1.000000000,1.000000000,1.000000000,1.000000000,1.000000000,1.000000000,1.000000000,0.937236287,0.811708861,0.739978903,0.917194093,0.953059072,0.988924051,0.900843882,0.842827004,0.860759494,0.845464135,0.702004219,0.558544304,0.415084388,0.168248945,0.021624473,0.142405063,0.349156118,0.085970464,0.121835443,0.059599156,0.014767932,0.000000000,0.015295359,0.041666667,0.041666667,0.041666667,0.142932489,0.082805907,0.085970464,0.435654008,0.927215190,0.963080169,0.998945148,0.965189873,0.900316456,0.793776371,0.668248945,0.699367089,1.000000000,1.000000000,2
0.791666667,0.791666667,0.957805907,0.912974684,0.912183544,0.968354430,1.000000000,1.000000000,0.992088608,0.956487342,0.937763713,0.919040084,0.818565401,0.877109705,0.940928270,0.958333333,0.863396624,0.789556962,0.970464135,0.830168776,0.792721519,0.791666667,0.759493671,0.861814346,0.750527426,0.488396624,0.318037975,0.291666667,0.271097046,0.177215190,0.327004219,0.261603376,0.693037975,0.833333333,0.833333333,0.833333333,0.759493671,0.646097046,0.714662447,0.743670886,0.631329114,0.695675105,0.708333333,0.573839662,0.658755274,0.828586498,0.875000000,0.814873418,0.654008439,0.839662447,0.989451477,0.721518987,0.850210970,0.969409283,0.922468354,0.791402954,0.763185654,0.818037975,0.656645570,0.875000000,0.875000000,0.840717300,0.803270042,0.688291139,0.711497890,0.826476793,0.861814346,0.779535865,0.592827004,0.668248945,0.780590717,0.859177215,0.609177215,0.550632911,0.667721519,0.851265823,0.936708861,0.791666667,0.795886076,0.833333333,16
0.916666667,0.916666667,0.387658228,0.389240506,0.623417722,0.811181435,0.906645570,0.870253165,0.833860759,0.976793249,1.000000000,1.000000000,1.000000000,1.000000000,1.000000000,0.995780591,0.959388186,0.887658228,0.905063291,0.867088608,0.813818565,0.834388186,0.907700422,0.886075949,0.995253165,1.000000000,0.963080169,0.905458861,0.931962025,1.000000000,0.983122363,0.900843882,0.718881857,0.742616034,0.837025316,0.780063291,0.412974684,0.140559072,0.413502110,0.635021097,0.198312236,0.639240506,0.892405063,0.911919831,0.803270042,0.746308017,0.833333333,0.799578059,0.217299578,0.498945148,0.751054852,0.787974684,0.732594937,0.768987342,0.916666667,0.911919831,0.802742616,0.824367089,0.668776371,0.649789030,0.657700422,0.618143460,0.739978903,0.909282700,0.654535865,0.818037975,0.606012658,0.501582278,0.688818565,0.861286920,0.748945148,0.995780591,0.704641350,0.888185654,0.826476793,0.802742616,0.893723629,0.926687764,0.748945148,0.166666667,10
0.625000000,0.859704641,0.286919831,0.796940928,0.414556962,0.854957806,0.977320675,1.000000000,0.806962025,0.301358122,0.536392405,0.492616034,0.268459916,0.702531646,0.877109705,0.349683544,0.753164557,0.934862869,0.837684599,0.422995781,0.467827004,0.832278481,0.832805907,0.900580169,0.980353376,0.994264241,0.999868143,0.801687764,0.250527426,0.617616034,0.939873418,0.940928270,0.833333333,0.453586498,0.325949367,0.225738397,0.511603376,0.261603376,0.462025316,0.299578059,0.562763713,0.098628692,0.486286920,0.305379747,0.372890295,0.312763713,0.273206751,0.296940928,0.754219409,0.375527426,0.498945148,0.801687764,0.081751055,0.385548523,0.719936709,0.127637131,0.386075949,0.363396624,0.084388186,0.148206751,0.315400844,0.262658228,0.508966245,0.454113924,0.162710970,0.554324895,0.709915612,0.829641350,0.812236287,0.826476793,0.422995781,0.395569620,0.808544304,0.466772152,0.486814346,0.679324895,0.924050633,1.000000000,0.961497890,0.166666667,14
0.375000000,0.147151899,0.399261603,0.657172996,0.904008439,0.466244726,0.158755274,0.275843882,0.322784810,0.533755274,0.642932489,0.460970464,0.555907173,0.650843882,0.635021097,0.569092827,0.493143460,0.581751055,0.708333333,0.629219409,0.439345992,0.340189873,0.143987342,0.485759494,0.390822785,0.276898734,0.220991561,0.385548523,0.683808017,0.706223629,0.392932489,0.345991561,0.861286920,0.785337553,0.709388186,0.371308017,0.451476793,0.584388186,0.598628692,0.674050633,0.636075949,0.431170886,0.260284810,0.164556962,0.354430380,0.545094937,0.791930380,0.908227848,0.981540084,1.000000000,1.000000000,1.000000000,1.000000000,1.000000000,1.000000000,1.000000000,1.000000000,1.000000000,1.000000000,1.000000000,0.931462348,0.686705770,0.520569620,0.604430380,0.832278481,1.000000000,0.943037975,0.627637131,0.665611814,0.703586498,0.542194093,0.411392405,0.297468354,0.604430380,0.805907173,0.563291139,0.375000000,0.375000000,0.345464135,0.041666667,0
0.791666667,0.842827004,0.933016878,0.782172996,0.775316456,0.833333333,0.852320675,0.941455696,0.949367089,0.945147679,0.958333333,0.923523207,0.233122363,0.413502110,0.185126582,0.504746835,0.764767932,0.642405063,0.369198312,0.221518987,0.672995781,0.808544304,0.400316456,0.301687764,0.196202532,0.241561181,0.087552743,0.352320675,0.703059072,0.675105485,0.731540084,0.776898734,0.750000000,0.750000000,0.798523207,0.833333333,0.833333333,0.732067511,0.782172996,0.791666667,0.094409283,0.351265823,0.198312236,0.399789030,0.569092827,0.541666667,0.521097046,0.713607595,0.821202532,0.701476793,0.633438819,0.770569620,0.831223629,0.167721519,0.199894515,0.139767932,0.356012658,0.723101266,0.617088608,0.686708861,0.824367089,0.863924051,0.685654008,0.625000000,0.876054852,0.526371308,0.789029536,0.579641350,0.479957806,0.256856540,0.541666667,0.623417722,0.691455696,0.602320675,0.738396624,0.862341772,0.810654008,0.862341772,0.258966245,0.416666667,2
0.416666667,0.547468354,0.761339662,0.932753165,0.955762131,0.706421414,0.405392932,0.538502110,0.698839662,0.474156118,0.670358650,0.892932489,1.000000000,1.000000000,1.000000000,0.935654008,0.916666667,0.916666667,0.927215190,0.992616034,0.818697257,0.584256329,0.483122363,0.671940928,0.753691983,0.835443038,0.925632911,1.000000000,1.000000000,0.968354430,0.935654008,0.944092827,1.000000000,1.000000000,1.000000000,1.000000000,0.989451477,0.958333333,0.958333333,0.983649789,0.877373418,0.632120253,0.386867089,0.748417722,0.852848101,0.806962025,0.773206751,0.953059072,0.748549578,0.478771097,0.351793249,0.540611814,0.507911392,0.710706751,0.873945148,0.914820675,0.955696203,0.683016878,0.713080169,0.694092827,0.411919831,0.738924051,0.860232068,0.941983122,0.962025316,0.834388186,0.899789030,0.916666667,0.901371308,0.868670886,0.835970464,0.908491561,0.969145570,1.000000000,1.000000000,1.000000000,1.000000000,0.990753560,0.956240111,0.875000000,12
0.208333333,0.695147679,0.318037975,0.598101266,0.216244726,0.335443038,0.322784810,0.680907173,0.301160338,0.850210970,0.381329114,0.808544304,0.255801688,0.270042194,0.539820675,0.425105485,0.685126582,0.514240506,0.580696203,0.432489451,0.097046414,0.582805907,0.405590717,0.860232068,1.000000000,1.000000000,1.000000000,1.000000000,0.997824367,0.804687500,0.370253165,0.325421941,0.641350211,0.408755274,0.727320675,0.360232068,0.235232068,0.312236287,0.227320675,0.683016878,0.112869198,0.625527426,0.327267932,0.376054852,0.472573840,0.436181435,0.914556962,1.000000000,1.000000000,1.000000000,0.978861748,0.583844277,0.310654008,0.478902954,0.454113924,0.780063291,0.484704641,0.246308017,0.244725738,0.250000000,0.188291139,0.943565401,0.828586498,0.486814346,0.225210970,0.624472574,0.349156118,0.484704641,0.214135021,0.619198312,0.985232068,0.698839662,0.294831224,0.495780591,0.434071730,0.386075949,0.543776371,0.475738397,0.753691983,0.208333333,0
0.625000000,0.626054852,0.293776371,0.135548523,0.393987342,0.788238397,0.852320675,0.792985232,0.587025316,0.449894515,0.818565401,0.578059072,0.611814346,0.666666667,0.429324895,0.750000000,0.750000000,0.673523207,0.583860759,0.625000000,0.134493671,0.500527426,0.482067511,0.782700422,0.597573840,0.604957806,0.815928270,0.546940928,0.191983122,0.382911392,0.620253165,0.646624473,0.418776371,0.632383966,0.585970464,0.341508439,0.085443038,0.281645570,0.579641350,0.749472574,0.251054852,0.206751055,0.220991561,0.126054852,0.099683544,0.488924051,0.576476793,0.681962025,0.482594937,0.245253165,0.609177215,0.004219409,0.202004219,0.660864979,0.583333333,0.473628692,0.250527426,0.520569620,0.365506329,0.303797468,0.632911392,0.731012658,0.794303797,0.836234177,0.717563291,0.587552743,0.642932489,0.527953586,0.285337553,0.218881857,0.582278481,0.629746835,0.011603376,0.499472574,0.790611814,0.928401899,0.797863924,0.539556962,0.565928270,0.583333333,8
0.812500000,0.995253165,0.609375000,0.198707806,0.353902954,0.375000000,0.233649789,0.619725738,0.209915612,0.244198312,0.167194093,0.530854430,0.905063291,1.000000000,1.000000000,0.974963739,0.884493671,0.928270042,1.000000000,1.000000000,0.863726266,0.462948312,0.480485232,0.613924051,0.413502110,0.727848101,0.833333333,0.595991561,0.241033755,0.713607595,0.968354430,1.000000000,0.986155063,0.884229958,0.597046414,0.161919831,0.121308017,0.104430380,0.407172996,0.167721519,0.248945148,0.250000000,0.132911392,0.884493671,0.330696203,0.608649789,0.214135021,0.496308017,0.223628692,0.568037975,0.708333333,0.383438819,0.762658228,1.000000000,1.000000000,0.417721519,0.502637131,0.833333333,0.833333333,0.886075949,0.912447257,0.861682489,0.851265823,0.866561181,0.846255274,0.729957806,0.404535865,0.131329114,0.151635021,0.367088608,0.806434599,0.392932489,0.695675105,0.344936709,0.790611814,0.275843882,0.827531646,0.268987342,0.632383966,0.916666667,0
0.500000000,0.500000000,0.647943038,0.872626582,0.976002110,1.000000000,1.000000000,1.000000000,1.000000000,1.000000000,1.000000000,1.000000000,1.000000000,1.000000000,1.000000000,1.000000000,1.000000000,1.000000000,1.000000000,1.000000000,1.000000000,1.000000000,1.000000000,1.000000000,1.000000000,1.000000000,1.000000000,0.982594937,0.893987342,0.875000000,0.897151899,0.956223629,0.758966245,0.552215190,0.434071730,0.847573840,0.915084388,0.903481013,0.992088608,1.000000000,1.000000000,1.000000000,1.000000000,0.979957806,0.934599156,0.845991561,0.757383966,0.767668776,0.898470464,0.972310127,0.997692511,0.989253692,0.963409810,0.982067511,1.000000000,1.000000000,1.000000000,1.000000000,0.990506329,0.931434599,0.828059072,0.790084388,0.908227848,0.889240506,0.920886076,1.000000000,1.000000000,1.000000000,1.000000000,1.000000000,1.000000000,0.972573840,0.907172996,0.729957806,0.723628692,0.812236287,0.900843882,0.940928270,0.958333333,0.958333333,6
0.666666667,0.666666667,0.940928270,1.000000000,0.838607595,0.657172996,0.778481013,0.952531646,0.887130802,0.908227848,0.870253165,0.836497890,0.950421941,0.746308017,0.803270042,0.805379747,0.840189873,0.916139241,0.924578059,0.888185654,0.907172996,0.863396624,0.797995781,0.911919831,0.734704641,0.741033755,0.837025316,0.925632911,0.806962025,0.738396624,0.847573840,0.853902954,0.798523207,0.836497890,0.874472574,0.800105485,0.859177215,0.814873418,0.633438819,0.269514768,0.060654008,0.098628692,0.206223629,0.503691983,0.870780591,0.833860759,0.871835443,0.770569620,0.843354430,0.820147679,0.791666667,0.771624473,0.750000000,0.712025316,0.607067511,0.583860759,0.876582278,0.914556962,0.773206751,0.717827004,0.765295359,0.890822785,0.873945148,0.774261603,0.640295359,0.346518987,0.194620253,0.580696203,0.542721519,0.689345992,0.575421941,0.659810127,0.656645570,0.713607595,0.791666667,0.776898734,0.761075949,0.813818565,0.912974684,0.875000000,12
1.000000000,1.000000000,1.000000000,1.000000000,1.000000000,1.000000000,1.000000000,1.000000000,1.000000000,1.000000000,1.000000000,1.000000000,1.000000000,1.000000000,1.000000000,1.000000000,1.000000000,1.000000000,1.000000000,1.000000000,1.000000000,1.000000000,1.000000000,1.000000000,1.000000000,1.000000000,1.000000000,1.000000000,1.000000000,1.000000000,1.000000000,1.000000000,1.000000000,1.000000000,1.000000000,1.000000000,1.000000000,1.000000000,1.000000000,1.000000000,1.000000000,1.000000000,0.997890295,0.972046414,0.970464135,0.996308017,1.000000000,1.000000000,1.000000000,1.000000000,1.000000000,1.000000000,1.000000000,1.000000000,1.000000000,1.000000000,1.000000000,1.000000000,1.000000000,1.000000000,1.000000000,1.000000000,1.000000000,1.000000000,1.000000000,1.000000000,1.000000000,0.976793249,0.965717300,0.991561181,1.000000000,0.996835443,0.945147679,0.928270042,0.954113924,0.958333333,0.952531646,0.926687764,0.900843882,0.875000000,4
0.208333333,0.429852321,0.310126582,0.310654008,0.442510549,0.552742616,0.364978903,0.289556962,0.551160338,0.594936709,0.425632911,0.306962025,0.420886076,0.595464135,0.374472574,0.339662447,0.415611814,0.413502110,0.452004219,0.246308017,0.372362869,0.500527426,0.407700422,0.380801688,0.256856540,0.522679325,0.649261603,0.338607595,0.204641350,0.510021097,0.449894515,0.370253165,0.170886076,0.409282700,0.448839662,0.383966245,0.218881857,0.318037975,0.515822785,0.402953586,0.327531646,0.342299578,0.375527426,0.363396624,0.366033755,0.262658228,0.242088608,0.330168776,0.253164557,0.250000000,0.541139241,0.840717300,0.142405063,0.117616034,0.083333333,0.083333333,0.083333333,0.083333333,0.083333333,0.155590717,0.133438819,0.226793249,0.336497890,0.251054852,0.367616034,0.292194093,0.128691983,0.218354430,0.208333333,0.293776371,0.362869198,0.353375527,0.206223629,0.214135021,0.316983122,0.270569620,0.398734177,0.445147679,0.535337553,0.541666667,10
0.375000000,0.345727848,0.502109705,0.330696203,0.495780591,0.578059072,0.482594937,0.346518987,0.491561181,0.467827004,0.343881857,0.427742616,0.542721519,0.233122363,0.332805907,0.490506329,0.455168776,0.246308017,0.486286920,0.453059072,0.337552743,0.269514768,0.508438819,0.329113924,0.379746835,0.317510549,0.363396624,0.265822785,0.587552743,0.885548523,0.281645570,0.342299578,0.450421941,0.357067511,0.348628692,0.409282700,0.375000000,0.251582278,0.418248945,0.391350211,0.358649789,0.281118143,0.416139241,0.444620253,0.335970464,0.410864979,0.329113924,0.294831224,0.375000000,0.516350211,0.365506329,0.363924051,0.484177215,0.386603376,0.286919831,0.321729958,0.377109705,0.234177215,0.356012658,0.358122363,0.262658228,0.262130802,0.356012658,0.294831224,0.259493671,0.445147679,0.486286920,0.321729958,0.250000000,0.447784810,0.380274262,0.351793249,0.563291139,0.439873418,0.177215190,0.353375527,0.348101266,0.875000000,0.527953586,0.583333333,12
0.958333333,0.958333333,0.869198312,0.553797468,0.608649789,0.948312236,1.000000000,0.989715190,0.910864979,0.816983122,0.701740506,0.801687764,0.995780591,1.000000000,1.000000000,1.000000000,1.000000000,1.000000000,1.000000000,1.000000000,1.000000000,1.000000000,1.000000000,1.000000000,1.000000000,1.000000000,1.000000000,1.000000000,1.000000000,1.000000000,1.000000000,1.000000000,1.000000000,1.000000000,1.000000000,1.000000000,1.000000000,1.000000000,1.000000000,1.000000000,1.000000000,1.000000000,1.000000000,0.995253165,0.922468354,0.900316456,0.973101266,0.996176160,0.990110759,0.906513713,0.852320675,0.949367089,1.000000000,1.000000000,1.000000000,1.000000000,1.000000000,1.000000000,1.000000000,0.955696203,0.882911392,0.939873418,1.000000000,1.000000000,1.000000000,1.000000000,1.000000000,1.000000000,1.000000000,1.000000000,1.000000000,1.000000000,1.000000000,1.000000000,1.000000000,1.000000000,1.000000000,1.000000000,1.000000000,1.000000000,10
1.000000000,1.000000000,1.000000000,1.000000000,1.000000000,1.000000000,1.000000000,1.000000000,1.000000000,1.000000000,1.000000000,1.000000000,1.000000000,1.000000000,1.000000000,1.000000000,1.000000000,1.000000000,1.000000000,1.000000000,1.000000000,1.000000000,1.000000000,1.000000000,1.000000000,1.000000000,0.991561181,0.933544304,0.875527426,0.837289030,0.851793249,0.866297468,0.863396624,0.834388186,0.917194093,0.973628692,1.000000000,1.000000000,1.000000000,0.994462025,0.969079641,0.915348101,0.900052743,0.972573840,0.992352321,1.000000000,1.000000000,1.000000000,1.000000000,1.000000000,1.000000000,1.000000000,0.983122363,0.925105485,0.966244726,1.000000000,1.000000000,1.000000000,0.984177215,0.958333333,0.958333333,0.977848101,1.000000000,1.000000000,1.000000000,1.000000000,1.000000000,1.000000000,1.000000000,0.995253165,0.908227848,0.821202532,0.760548523,0.818565401,0.854957806,0.892932489,0.950949367,0.933016878,0.904008439,0.875000000,18
0.916666667,0.981012658,1.000000000,1.000000000,1.000000000,1.000000000,1.000000000,1.000000000,1.000000000,1.000000000,1.000000000,1.000000000,0.993077532,0.967035865,0.826279008,0.864451477,0.857594937,0.779008439,0.955959916,0.972178270,0.964135021,0.962816456,0.978902954,0.994989451,0.889240506,0.816983122,0.873417722,0.857331224,0.841244726,0.784282700,0.708333333,0.708333333,0.737869198,0.850210970,0.963607595,0.979694093,0.995780591,0.905063291,0.847573840,0.875000000,0.875000000,0.861286920,0.845200422,0.867088608,0.995780591,0.626582278,0.629746835,0.756065401,0.772151899,0.788238397,0.842299578,0.867088608,0.851002110,0.834915612,0.804324895,0.713607595,0.705168776,0.956751055,0.860232068,0.879746835,0.848101266,0.720991561,0.817510549,0.887130802,0.916666667,0.916666667,0.916666667,0.824894515,0.707278481,0.706223629,0.914556962,0.882383966,0.949367089,0.954113924,0.840189873,0.647151899,0.596518987,0.754219409,0.958333333,0.958333333,2
0.708333333,0.708333333,0.656909283,0.599947257,0.825421941,0.633438819,0.550632911,0.560126582,0.444092827,0.790084388,0.358122363,0.875000000,0.875000000,0.875000000,0.875000000,0.539556962,0.617616034,0.863660338,0.962816456,1.000000000,0.929390823,0.634625527,0.314873418,0.732594937,0.313291139,0.675105485,0.936708861,0.746835443,0.367088608,0.471518987,0.675632911,0.397151899,0.646624473,0.339662447,0.415611814,0.866033755,0.950421941,0.958333333,0.562763713,0.514767932,0.571729958,0.381856540,0.354430380,0.522151899,0.112869198,0.370253165,0.028481013,0.313291139,0.623945148,0.845464135,0.916666667,0.796413502,0.633966245,0.684599156,0.853902954,0.646097046,0.796413502,0.910337553,0.809071730,0.920358650,0.986814346,0.987605485,0.926424051,0.892405063,0.944092827,1.000000000,1.000000000,1.000000000,1.000000000,1.000000000,1.000000000,0.793248945,0.320675105,0.105485232,0.309599156,0.408755274,0.343881857,0.855485232,0.958333333,0.958333333,10
0.500000000,0.625527426,0.210970464,0.549050633,0.276371308,0.502109705,0.563291139,0.331223629,0.848101266,0.554852321,0.504219409,0.833860759,0.354957806,0.492088608,0.543776371,0.460443038,0.418248945,0.532172996,0.782172996,0.117088608,0.604957806,0.412974684,0.323312236,0.623945148,0.465717300,0.602056962,0.311972574,0.779008439,0.536392405,0.437236287,0.779008439,0.205168776,0.352848101,0.764767932,0.617088608,0.366033755,0.534810127,0.123417722,0.303797468,0.118143460,0.460970464,0.171413502,0.194620253,0.322257384,0.380274262,0.452004219,0.203059072,0.420886076,0.494725738,0.344936709,0.609704641,0.259493671,0.127637131,0.546413502,0.284810127,0.344936709,0.729957806,0.255274262,0.645569620,0.329113924,0.803797468,0.172995781,0.379746835,0.561181435,0.212552743,0.448839662,0.389767932,0.845464135,0.166139241,0.495780591,0.445147679,0.224683544,0.483649789,0.310654008,0.751054852,0.755274262,0.399261603,0.381329114,0.288502110,0.666666667,14
0.750000000,0.950421941,0.996835443,1.000000000,0.699630802,0.257647679,0.617088608,0.352320675,0.556434599,0.859177215,0.976265823,1.000000000,1.000000000,1.000000000,1.000000000,1.000000000,0.861023207,0.476002110,0.324894515,0.724683544,0.905063291,0.921940928,0.540875527,0.219409283,0.553797468,0.273206751,0.711761603,0.972310127,0.988924051,0.998945148,0.318565401,0.482594937,0.345464135,0.416139241,0.650316456,0.910864979,0.841772152,0.824367089,0.851793249,0.444092827,0.243670886,0.499736287,0.680116034,0.868143460,0.931434599,0.633966245,0.334388186,0.614715190,0.755010549,0.892405063,0.902953586,0.078586498,0.612341772,0.131329114,0.401898734,0.758438819,0.573312236,0.332805907,0.557489451,0.593354430,0.312763713,0.578586498,0.857594937,0.726793249,0.426160338,0.380274262,0.293776371,0.314873418,0.350210970,0.241561181,0.556962025,0.704641350,0.725210970,0.446729958,0.227848101,0.584388186,0.177215190,0.605485232,0.844936709,0.083333333,8
1.000000000,1.000000000,0.919303797,0.855485232,0.796940928,0.717827004,0.786392405,0.918248945,0.982594937,0.915611814,0.820147679,0.912447257,0.843881857,0.833333333,0.909018987,0.954245781,0.894251055,0.834256329,0.934599156,0.905590717,0.893987342,0.939873418,0.995780591,0.961497890,0.958333333,0.887130802,0.816983122,0.791666667,0.794831224,0.863396624,0.761075949,0.729430380,0.791139241,0.849683544,0.712552743,0.808016878,0.885021097,0.935126582,0.969409283,0.988924051,0.886075949,0.875000000,0.805379747,0.829113924,0.941455696,0.872890295,0.804324895,0.819620253,0.833333333,0.833333333,0.839135021,0.873417722,0.842299578,0.833333333,0.851265823,0.853902954,0.797995781,0.866561181,0.754746835,0.731012658,0.719409283,0.690400844,0.793248945,0.896097046,0.916666667,0.816455696,0.708333333,0.718881857,0.787447257,0.839926160,0.891350211,0.847046414,0.689873418,0.529008439,0.906118143,0.899261603,0.786392405,0.767405063,0.889767932,0.958333333,0
0.916666667,0.900580169,0.884493671,0.901371308,0.962025316,0.994198312,1.000000000,0.995780591,0.984045359,0.959915612,0.958333333,0.958333333,0.952795359,0.936708861,0.920622363,0.965189873,1.000000000,0.996044304,0.971914557,0.905854430,0.764240506,0.705696203,0.995253165,0.841772152,0.747362869,0.784282700,0.952004219,0.887658228,0.887921941,0.904008439,0.930379747,0.994725738,0.970464135,0.958333333,0.947784810,0.917721519,0.949894515,0.934599156,0.902426160,0.856012658,0.727320675,0.818037975,0.892932489,0.899789030,0.835443038,0.833333333,0.833333333,0.845464135,0.864451477,0.735759494,0.683016878,0.729957806,0.858649789,0.987341772,1.000000000,1.000000000,0.979957806,0.916139241,0.883966245,0.851793249,0.860759494,0.908227848,0.843881857,0.833333333,0.781118143,0.732067511,0.828586498,0.894514768,0.874472574,0.879746835,0.995780591,0.931434599,0.891877637,0.859704641,0.856540084,0.985232068,0.886075949,0.890295359,0.920358650,0.791666667,10
1.000000000,1.000000000,1.000000000,1.000000000,1.000000000,1.000000000,1.000000000,1.000000000,1.000000000,1.000000000,1.000000000,1.000000000,1.000000000,1.000000000,1.000000000,1.000000000,1.000000000,1.000000000,1.000000000,1.000000000,1.000000000,1.000000000,1.000000000,0.623417722,0.152426160,0.334124473,0.515822785,0.704641350,0.928270042,0.981012658,0.953059072,0.925105485,0.955696203,1.000000000,1.000000000,1.000000000,1.000000000,1.000000000,1.000000000,1.000000000,1.000000000,1.000000000,1.000000000,1.000000000,1.000000000,0.992088608,0.964135021,0.980485232,0.981012658,0.918117089,0.843881857,0.809599156,0.865506329,0.898206751,0.930907173,0.972837553,0.991033755,1.000000000,1.000000000,1.000000000,1.000000000,1.000000000,0.950421941,0.927742616,0.955696203,0.983649789,1.000000000,1.000000000,1.000000000,1.000000000,1.000000000,0.973628692,0.945675105,0.917721519,0.943565401,0.971518987,0.999472574,1.000000000,1.000000000,1.000000000,14
0.333333333,0.333333333,0.623417722,0.829377637,0.916271097,0.960443038,0.996308017,0.960970464,0.745780591,0.516086498,0.476793249,0.630801688,0.832805907,0.926424051,0.904338080,0.882252110,0.922468354,0.940928270,0.905590717,0.875000000,0.875000000,0.976265823,0.945147679,0.937763713,0.958333333,0.958333333,0.955168776,0.902162447,0.849156118,0.895305907,0.942114979,0.950949367,0.952531646,0.917194093,0.777426160,0.778481013,0.813818565,0.849156118,0.875000000,0.856012658,0.643987342,0.689345992,0.579113924,0.636603376,0.752109705,0.673523207,0.701476793,0.242088608,0.314345992,0.537447257,0.767932489,0.885021097,0.791666667,0.791666667,0.858122363,0.901898734,0.772679325,0.696202532,0.801687764,0.666666667,0.666666667,0.605485232,0.728902954,0.779535865,0.708333333,0.708333333,0.708333333,0.742616034,0.917721519,0.805379747,0.640295359,0.639767932,0.562763713,0.845464135,0.685126582,0.776898734,0.742088608,0.659282700,0.801687764,0.625000000,4
1.000000000,1.000000000,1.000000000,1.000000000,1.000000000,1.000000000,1.000000000,1.000000000,1.000000000,1.000000000,1.000000000,1.000000000,1.000000000,1.000000000,0.981012658,0.962552743,0.978111814,0.993670886,0.972310127,0.925632911,0.878955696,0.761075949,0.780063291,0.867616034,0.836497890,0.945147679,0.982594937,0.965189873,0.996308017,1.000000000,1.000000000,1.000000000,1.000000000,1.000000000,1.000000000,0.999184138,0.994808149,0.945106474,0.948312236,1.000000000,1.000000000,1.000000000,1.000000000,0.999109968,0.993275316,0.946301424,0.894514768,0.847837553,0.801160338,0.791666667,0.777426160,0.761075949,0.854430380,0.826476793,0.723101266,0.595991561,0.720464135,0.844936709,0.903481013,0.882911392,0.976265823,0.907172996,0.833333333,0.837552743,0.899789030,0.644514768,0.380274262,0.312236287,0.716772152,0.899789030,0.946729958,0.918776371,0.981012658,1.000000000,0.977848101,0.915611814,0.853375527,0.854430380,0.875000000,0.875000000,16
0.958333333,0.958333333,0.988396624,1.000000000,1.000000000,1.000000000,0.965503033,0.779849024,0.422320016,0.623945148,0.505801688,0.511603376,0.618670886,0.493143460,0.389767932,0.640822785,0.891877637,0.747362869,0.460443038,0.439345992,0.627637131,0.352320675,0.567510549,0.915611814,0.533755274,0.486286920,0.524261603,0.381856540,0.628691983,0.305907173,0.497362869,0.399261603,0.446729958,0.482594937,0.357067511,0.281645570,0.496835443,0.782700422,0.921940928,0.982067511,0.964135021,0.892405063,0.842827004,0.896624473,0.950421941,0.468881857,0.514767932,0.780590717,0.718881857,0.358122363,0.657172996,0.441983122,0.543248945,0.790084388,0.926687764,0.944620253,0.949894515,0.914029536,0.878164557,0.973101266,1.000000000,1.000000000,0.954113924,0.884493671,0.920358650,0.956223629,0.958333333,0.986286920,0.983386076,0.948312236,0.874472574,0.759493671,0.831223629,0.902953586,0.974683544,0.883966245,0.843881857,0.916666667,0.916666667,0.916666667,20
0.666666667,0.666666667,0.862078059,0.931434599,0.922468354,0.941983122,0.955432489,0.718090717,0.341508439,0.602848101,0.404535865,0.383966245,0.487341772,0.370780591,0.719936709,0.917194093,0.688159283,0.410205696,0.476793249,0.762658228,0.950949367,1.000000000,1.000000000,1.000000000,1.000000000,1.000000000,1.000000000,0.909810127,0.587025316,0.264240506,0.524261603,0.739978903,0.648074895,0.388053797,0.319092827,0.566983122,0.172468354,0.520042194,0.376582278,0.457805907,0.664029536,0.825421941,0.958333333,0.957542194,0.903744726,0.849947257,0.932489451,0.981012658,0.918776371,0.848101266,0.919831224,0.991561181,0.691455696,0.328850211,0.347046414,0.698312236,1.000000000,0.947257384,0.229957806,0.526371308,0.329113924,0.335443038,0.683544304,0.995253165,0.977320675,0.959388186,0.384493671,0.333860759,0.574367089,0.750000000,0.781645570,0.851265823,0.671940928,0.875527426,0.858649789,0.926160338,0.895569620,0.784810127,0.875000000,0.875000000,0
1.000000000,1.000000000,1.000000000,0.994725738,0.965189873,0.981012658,0.994725738,0.979957806,0.965189873,0.942510549,0.924050633,0.983122363,1.000000000,0.991033755,0.961497890,0.984704641,1.000000000,1.000000000,1.000000000,1.000000000,0.992616034,0.963080169,0.983122363,0.981012658,0.936708861,0.892405063,0.928797468,1.000000000,1.000000000,1.000000000,1.000000000,1.000000000,1.000000000,1.000000000,0.991561181,0.932489451,0.851793249,0.796413502,0.811181435,0.825949367,0.862869198,0.921940928,0.981012658,0.979957806,0.942510549,0.883438819,0.900316456,0.929852321,0.956223629,0.897151899,0.930379747,1.000000000,1.000000000,0.810126582,0.713080169,0.831223629,0.949367089,0.949367089,0.872626582,0.857858650,0.843090717,0.853375527,0.912447257,0.916666667,0.924314346,0.939082278,0.953850211,0.978902954,1.000000000,1.000000000,1.000000000,1.000000000,0.998219937,0.964992089,0.879549051,0.825949367,0.973628692,0.902953586,0.833333333,0.833333333,10
0.333333333,0.333333333,0.453586498,0.763713080,0.913502110,1.000000000,1.000000000,1.000000000,1.000000000,1.000000000,1.000000000,1.000000000,1.000000000,1.000000000,1.000000000,1.000000000,1.000000000,1.000000000,1.000000000,1.000000000,1.000000000,1.000000000,1.000000000,0.988924051,0.963080169,0.979430380,1.000000000,1.000000000,0.984704641,0.958860759,0.983649789,1.000000000,1.000000000,1.000000000,1.000000000,1.000000000,1.000000000,1.000000000,1.000000000,1.000000000,1.000000000,1.000000000,1.000000000,1.000000000,1.000000000,1.000000000,0.933544304,0.893987342,0.971518987,1.000000000,1.000000000,1.000000000,1.000000000,1.000000000,1.000000000,1.000000000,1.000000000,1.000000000,1.000000000,1.000000000,1.000000000,1.000000000,1.000000000,1.000000000,1.000000000,1.000000000,1.000000000,1.000000000,1.000000000,1.000000000,1.000000000,1.000000000,1.000000000,1.000000000,1.000000000,1.000000000,1.000000000,1.000000000,1.000000000,1.000000000,10
1.000000000,1.000000000,1.000000000,1.000000000,1.000000000,1.000000000,1.000000000,1.000000000,1.000000000,1.000000000,1.000000000,1.000000000,1.000000000,1.000000000,1.000000000,1.000000000,1.000000000,1.000000000,1.000000000,1.000000000,1.000000000,1.000000000,1.000000000,1.000000000,1.000000000,1.000000000,1.000000000,1.000000000,1.000000000,1.000000000,1.000000000,1.000000000,1.000000000,1.000000000,1.000000000,1.000000000,1.000000000,1.000000000,1.000000000,1.000000000,1.000000000,1.000000000,1.000000000,1.000000000,1.000000000,1.000000000,1.000000000,1.000000000,1.000000000,1.000000000,1.000000000,1.000000000,1.000000000,1.000000000,1.000000000,1.000000000,1.000000000,1.000000000,1.000000000,1.000000000,1.000000000,1.000000000,1.000000000,1.000000000,1.000000000,1.000000000,1.000000000,1.000000000,1.000000000,1.000000000,1.000000000,1.000000000,1.000000000,1.000000000,1.000000000,1.000000000,1.000000000,1.000000000,1.000000000,1.000000000,10
1.000000000,1.000000000,1.000000000,1.000000000,1.000000000,1.000000000,1.000000000,0.981012658,0.918776371,0.856540084,0.891877637,0.967299578,0.998417722,1.000000000,1.000000000,1.000000000,1.000000000,0.995467431,0.940994198,0.886867089,0.933544304,0.980221519,0.928270042,0.803797468,0.679324895,0.890295359,0.982594937,0.951476793,0.920358650,0.505274262,0.325421941,0.409810127,0.580959916,0.752109705,0.874208861,0.933148734,0.909810127,0.886471519,0.882911392,0.898470464,0.914029536,0.877900844,0.831223629,0.801160338,0.863396624,0.950949367,0.970464135,0.904008439,0.810654008,0.804061181,0.819620253,0.829641350,0.798523207,0.912974684,0.917721519,0.768987342,0.955696203,0.994066456,0.979694093,0.955696203,0.924578059,0.881856540,0.835179325,0.799050633,0.907964135,0.920490506,0.897151899,0.873417722,0.842299578,0.921940928,0.941983122,0.795886076,0.920358650,0.871835443,0.780590717,0.750527426,0.781645570,0.876054852,0.947784810,0.916666667,4
0.541666667,0.652953586,0.353375527,0.606012658,0.400316456,0.803797468,0.408755274,0.696729958,0.527953586,0.442510549,0.595464135,0.176687764,0.592299578,0.545358650,0.421940928,0.455696203,0.267405063,0.613396624,0.483122363,0.446202532,0.748417722,0.216772152,0.695675105,0.464135021,0.462025316,0.571202532,0.200949367,0.617616034,0.745385021,0.336366034,0.601793249,0.127109705,0.631856540,0.319092827,0.767405063,0.688686709,0.230089662,0.652953586,0.259493671,0.513713080,0.488924051,0.283227848,0.816455696,0.325421941,0.531118143,0.435126582,0.227320675,0.622362869,0.287974684,0.444092827,0.351265823,0.355485232,0.431962025,0.154008439,0.688818565,0.815400844,0.319620253,0.612341772,0.133966245,0.867088608,1.000000000,0.766482068,0.232990506,0.686181435,0.197257384,0.747890295,0.450421941,0.694092827,0.149789030,0.574367089,0.222046414,0.318037975,0.502109705,0.343881857,0.685126582,0.370253165,0.534810127,0.508438819,0.295358650,0.791666667,22
1.000000000,1.000000000,1.000000000,1.000000000,0.959915612,0.866033755,0.555907173,0.544831224,0.777426160,0.912974684,1.000000000,1.000000000,1.000000000,1.000000000,1.000000000,1.000000000,1.000000000,1.000000000,1.000000000,1.000000000,1.000000000,1.000000000,1.000000000,1.000000000,1.000000000,0.767932489,0.557489451,0.635021097,0.781381857,0.975210970,0.991824895,1.000000000,1.000000000,1.000000000,1.000000000,1.000000000,1.000000000,1.000000000,1.000000000,1.000000000,1.000000000,1.000000000,1.000000000,1.000000000,1.000000000,1.000000000,1.000000000,1.000000000,1.000000000,1.000000000,1.000000000,1.000000000,1.000000000,1.000000000,1.000000000,1.000000000,1.000000000,1.000000000,1.000000000,1.000000000,1.000000000,1.000000000,0.990506329,0.974419831,0.935654008,0.943037975,0.994725738,1.000000000,1.000000000,1.000000000,1.000000000,1.000000000,1.000000000,0.965189873,0.887658228,0.593881857,0.373945148,0.554852321,0.767405063,1.000000000,6
0.583333333,0.766877637,0.911392405,1.000000000,1.000000000,1.000000000,1.000000000,1.000000000,1.000000000,1.000000000,1.000000000,1.000000000,1.000000000,0.977320675,0.946729958,0.917721519,0.978902954,1.000000000,1.000000000,1.000000000,1.000000000,1.000000000,0.993670886,0.963080169,0.984177215,0.985232068,0.954641350,0.924050633,0.963080169,1.000000000,0.997890295,0.936708861,0.875527426,0.838080169,0.853375527,0.868670886,0.875000000,0.885284810,0.931170886,0.977056962,0.984704641,0.962552743,0.993143460,1.000000000,1.000000000,0.998417722,0.967827004,0.979430380,1.000000000,1.000000000,1.000000000,0.907700422,0.791666667,0.791666667,0.818565401,0.896624473,0.995253165,0.964662447,0.934071730,0.896888186,0.851002110,0.805116034,0.791666667,0.812763713,0.873945148,0.859968354,0.844672996,0.829377637,0.814082278,0.798786920,0.840717300,0.906118143,0.844936709,0.783755274,0.818565401,0.947784810,0.825421941,0.769514768,0.750000000,0.750000000,10
0.916666667,0.978902954,1.000000000,1.000000000,1.000000000,1.000000000,0.993110496,0.969953191,0.918413766,0.976793249,0.902426160,0.746835443,0.591244726,0.612869198,0.738924051,0.883438819,0.914556962,0.974683544,1.000000000,1.000000000,1.000000000,1.000000000,1.000000000,1.000000000,1.000000000,0.944092827,0.934071730,0.930907173,0.806434599,0.736814346,0.674578059,0.656645570,0.812236287,0.806434599,0.758966245,0.743143460,0.929852321,0.958333333,0.974156118,0.978902954,0.854430380,0.820411392,0.804852321,0.810654008,0.935126582,0.781118143,0.696202532,0.758438819,0.820675105,0.882911392,0.945147679,1.000000000,1.000000000,0.975738397,0.903481013,0.797995781,0.860232068,0.922468354,0.958333333,0.955696203,0.924578059,0.800632911,0.720991561,0.758438819,0.882911392,0.893987342,0.862869198,0.833333333,0.833333333,0.811181435,0.838080169,0.957278481,0.926160338,0.938291139,0.925105485,0.833860759,0.864978903,0.896097046,0.927215190,0.958333333,8
0.666666667,0.419303797,0.433016878,0.605748945,0.835443038,1.000000000,1.000000000,1.000000000,0.967299578,0.984704641,1.000000000,0.986286920,0.965717300,0.997890295,0.927215190,0.916666667,0.964135021,0.995648734,0.981276371,0.963080169,0.998417722,1.000000000,0.811445148,0.478837025,0.382911392,0.684071730,0.920886076,0.991561181,0.953322785,0.900316456,0.911919831,0.946202532,0.910864979,0.875527426,0.840189873,0.918776371,0.936181435,0.948312236,0.981012658,0.910337553,0.839662447,0.962025316,0.922468354,0.894514768,0.850738397,0.715189873,0.753164557,0.965189873,0.852320675,0.814873418,0.850210970,0.864451477,0.774261603,0.279535865,0.549050633,0.867088608,0.650316456,0.419831224,0.571729958,0.180907173,0.498945148,0.358122363,0.412974684,0.643459916,0.659282700,0.250527426,0.533227848,0.781645570,0.777426160,0.879746835,0.770569620,0.383966245,0.443037975,0.796413502,0.959915612,0.898734177,0.757383966,0.679324895,0.739978903,0.916666667,12
1.000000000,1.000000000,1.000000000,1.000000000,1.000000000,0.931962025,0.885548523,0.915084388,0.944620253,0.974156118,1.000000000,1.000000000,1.000000000,1.000000000,1.000000000,0.947257384,0.945147679,1.000000000,1.000000000,1.000000000,0.992616034,0.963080169,0.945938819,0.931170886,0.917721519,0.976793249,1.000000000,1.000000000,1.000000000,1.000000000,1.000000000,1.000000000,0.914556962,0.924050633,1.000000000,1.000000000,1.000000000,1.000000000,1.000000000,1.000000000,1.000000000,0.994478507,0.932637790,0.814428402,0.743934599,0.876845992,0.927478903,0.964398734,0.997362869,0.923523207,0.849683544,0.794831224,0.809599156,0.824367089,0.850738397,0.895042194,0.939345992,0.975210970,1.000000000,1.000000000,1.000000000,1.000000000,1.000000000,1.000000000,0.969409283,0.910337553,0.851265823,0.709915612,0.650843882,0.887130802,0.813291139,0.777426160,0.834915612,0.864451477,0.856012658,0.847046414,0.906118143,0.916666667,0.916666667,0.916666667,10
0.416666667,0.743670886,0.595991561,0.446202532,0.523206751,0.654008439,0.873417722,0.978902954,1.000000000,0.992088608,0.893987342,0.940928270,0.987869198,1.000000000,1.000000000,0.949729694,0.878329378,0.833333333,0.835970464,0.852320675,0.868670886,0.925105485,0.970859705,0.946334388,0.921809072,0.942510549,0.975210970,1.000000000,1.000000000,1.000000000,0.943301688,0.861550633,0.801160338,0.866561181,0.931962025,0.919303797,0.864451477,0.834915612,0.867616034,0.925632911,0.958333333,0.958333333,0.958333333,0.927215190,0.894514768,0.901371308,0.958333333,0.958333333,0.986286920,0.962025316,0.901635021,0.852584388,0.803533755,0.779272152,0.762921941,0.770569620,0.868670886,0.875000000,0.831751055,0.842299578,0.962025316,0.994725738,0.890295359,0.851793249,0.884493671,0.915084388,0.816983122,0.912974684,0.877637131,0.710970464,0.939873418,0.928270042,0.937763713,0.921940928,0.833333333,0.833333333,0.833333333,0.761603376,0.639767932,0.541666667,8
0.416666667,0.448312236,0.890295359,0.739978903,0.885548523,0.929852321,0.958333333,0.967563291,0.989715190,0.964398734,0.897943038,0.439873418,0.439873418,0.191455696,0.568037975,0.822784810,0.915084388,0.790084388,0.767932489,0.766877637,0.811181435,0.777426160,0.800632911,0.712025316,0.428797468,0.378164557,0.795886076,0.869725738,0.318565401,0.549578059,0.213080169,0.527426160,0.046940928,0.283227848,0.656645570,0.815400844,0.755801688,0.777953586,0.470991561,0.214662447,0.502637131,0.764767932,0.944092827,0.928270042,0.638713080,0.262130802,0.512130802,0.135548523,0.246835443,0.187763713,0.422995781,0.647679325,0.631856540,0.705696203,0.677215190,0.729957806,0.821729958,0.739451477,0.205696203,0.336497890,0.126054852,0.436181435,0.114978903,0.371308017,0.720464135,0.199894515,0.502637131,0.568037975,0.150316456,0.162447257,0.244725738,0.581751055,0.847573840,0.984177215,0.857594937,0.698312236,0.700421941,0.526371308,0.617088608,0.125000000,8
0.875000000,0.875000000,0.840717300,0.772151899,0.750000000,0.703586498,0.725210970,0.807489451,0.833333333,0.858649789,0.934599156,0.750000000,0.750000000,0.679324895,0.698312236,0.708333333,0.756856540,0.791666667,0.808544304,0.833333333,0.766877637,0.593881857,0.910337553,0.796413502,0.828059072,0.800632911,0.878691983,0.764767932,0.731540084,0.809599156,0.819092827,0.802215190,0.826476793,0.791666667,0.791666667,0.716772152,0.742088608,0.689873418,0.772151899,0.742616034,0.704641350,0.734704641,0.708333333,0.716244726,0.754219409,0.791666667,0.791666667,0.687236287,0.760021097,0.681962025,0.625000000,0.645042194,0.699367089,0.775316456,0.797468354,0.671940928,0.711497890,0.787447257,0.719936709,0.643987342,0.681962025,0.658755274,0.646097046,0.684071730,0.708333333,0.738396624,0.820675105,0.747362869,0.709388186,0.634493671,0.691455696,0.708333333,0.656645570,0.625000000,0.643459916,0.681434599,0.686181435,0.625000000,0.632383966,0.708333333,6
0.291666667,0.585443038,0.212552743,0.466244726,0.153481013,0.375000000,0.347046414,0.333333333,0.479430380,0.717299578,0.424314346,0.437236287,0.181962025,0.162447257,0.308016878,0.757383966,0.829641350,0.324367089,0.370780591,0.126582278,0.641877637,0.698312236,0.651371308,0.715189873,0.684071730,0.709915612,0.751582278,0.733122363,0.600738397,0.737341772,0.612869198,0.666666667,0.324894515,0.412447257,0.808544304,0.781645570,0.940400844,0.300632911,0.295358650,0.244198312,0.654008439,0.659282700,0.242616034,0.532172996,0.125000000,0.390822785,0.253691983,0.415611814,0.588607595,0.274261603,0.140822785,0.283227848,0.310126582,0.723101266,0.296413502,0.548523207,0.461497890,0.390295359,0.102320675,0.315928270,0.694620253,0.791666667,0.263713080,0.348628692,0.188818565,0.258438819,0.507383966,0.873945148,0.292194093,0.196202532,0.164556962,0.301160338,0.447784810,0.263713080,0.494198312,0.957278481,0.584388186,0.240506329,0.243143460,0.458333333,8
0.958333333,0.958333333,0.926160338,0.779535865,0.413502110,0.184599156,0.379746835,0.758438819,0.806434599,0.954113924,0.868670886,0.776371308,0.776371308,0.899789030,0.983122363,0.946202532,0.909282700,0.875000000,0.875000000,0.805379747,0.851793249,0.824367089,0.812236287,0.864978903,0.927742616,0.958333333,0.958333333,0.958333333,0.992088608,0.883966245,0.857594937,0.914029536,0.943565401,0.916666667,0.927215190,1.000000000,1.000000000,0.869198312,0.889240506,0.800632911,0.763713080,0.874472574,0.886603376,0.629219409,0.666139241,0.339135021,0.497362869,0.737341772,0.811181435,0.826476793,0.799050633,0.617088608,0.586497890,0.623417722,0.695675105,0.647151899,0.650843882,0.708860759,0.782700422,0.775316456,0.618143460,0.583333333,0.583333333,0.754746835,0.762130802,0.700421941,0.626582278,0.629219409,0.687236287,0.636603376,0.703059072,0.518459916,0.599683544,0.653481013,0.714135021,0.750000000,0.707278481,0.625000000,0.643987342,0.791666667,18
0.875000000,0.875000000,0.965189873,1.000000000,1.000000000,1.000000000,0.986286920,0.915084388,0.861286920,0.807489451,0.867616034,0.936181435,0.917194093,0.817510549,0.754219409,0.825949367,0.962025316,0.868143460,0.832805907,0.786392405,0.678797468,0.881329114,0.953059072,0.925105485,0.889240506,0.896624473,0.932489451,0.968354430,0.991561181,0.919831224,0.848101266,0.690928270,0.511603376,0.298523207,0.246835443,0.614978903,0.830168776,0.656645570,0.669303797,0.723101266,0.588607595,0.544831224,0.958333333,0.955696203,0.776371308,0.658227848,0.674578059,0.670358650,0.717299578,0.879746835,0.711497890,0.783227848,0.886603376,0.942510549,0.838080169,0.736814346,0.757911392,0.640822785,0.856012658,0.809599156,0.845464135,0.853902954,0.863924051,0.859704641,0.688818565,0.904008439,0.275316456,0.348628692,0.591244726,0.610232068,0.489978903,0.611814346,0.827004219,0.659282700,0.741033755,0.722046414,0.788502110,0.923523207,0.827531646,0.791666667,2
0.291666667,0.380801688,0.668776371,0.641877637,0.574367089,0.752109705,0.421940928,0.680379747,0.436708861,0.529535865,0.614451477,0.386603376,0.860232068,0.338080169,0.523734177,0.506329114,0.459915612,0.623945148,0.467827004,0.723101266,0.383438819,0.537447257,0.540084388,0.405063291,0.689345992,0.385548523,0.652426160,0.476265823,0.531118143,0.674050633,0.281645570,0.716244726,0.494198312,0.529008439,0.539556962,0.328586498,0.747362869,0.335970464,0.654535865,0.458860759,0.507383966,0.644514768,0.294303797,0.782700422,0.347046414,0.697257384,0.541139241,0.421940928,0.632911392,0.362341772,0.687236287,0.513185654,0.513185654,0.592299578,0.339135021,0.722573840,0.315928270,0.534282700,0.522151899,0.484177215,0.775316456,0.233649789,0.756856540,0.459915612,0.550632911,0.636075949,0.247890295,0.697784810,0.347046414,0.509493671,0.634493671,0.533227848,0.622362869,0.379746835,0.661392405,0.392405063,0.413502110,0.418248945,0.297995781,0.750000000,24
