1,2,3,4,5,6,7,8,9,10,11,12,13,14,15,16,17,18,19,20,21,22,23,24,25,26,27,28,29,30,31,32,33,34,35,36,37,38,39,40,41,42,43,44,45,46,47,48,49,50,51,52,53,54,55,56,57,58,59,60,61,62,63,64,65,66,67,68,69,70,71,72,73,74,75,76,77,78,79,80,压力
0.583333333,0.543248945,0.660337553,0.422995781,0.600210970,0.892932489,0.560654008,0.799050633,0.820147679,0.319092827,0.276898734,0.735495781,0.630010549,0.589662447,0.729957806,0.265822785,0.324894515,0.363396624,0.662974684,0.831751055,0.873945148,0.536392405,0.465717300,0.940928270,0.981012658,0.891350211,0.668248945,0.566191983,0.835706751,0.782964135,0.670886076,0.492616034,0.298523207,0.281645570,0.446202532,0.485759494,0.558544304,0.410864979,0.393459916,0.396624473,0.523206751,0.470464135,0.504746835,0.876582278,0.968090717,0.880406118,0.639240506,0.400843882,0.713080169,0.544831224,0.186181435,0.367088608,0.664556962,0.414556962,0.591772152,0.575949367,0.736286920,0.562763713,0.458333333,0.333860759,0.228375527,0.304852321,0.333333333,0.466244726,0.516877637,0.537974684,0.367616034,0.191983122,0.489451477,0.851002110,0.988132911,1.000000000,1.000000000,1.000000000,0.814609705,0.594409283,0.142405063,0.531118143,0.706223629,0.458333333,6
0.416666667,0.343881857,0.426687764,0.458333333,0.684599156,0.671940928,0.420358650,0.882383966,0.300105485,0.255801688,0.372362869,0.391350211,0.294831224,0.341244726,0.526371308,0.316455696,0.170886076,0.449367089,0.319620253,0.671413502,0.646097046,0.462552743,0.666139241,0.274789030,0.929852321,0.784282700,0.543248945,0.446202532,0.428006329,0.348101266,0.250527426,0.432489451,0.614451477,0.796413502,0.659282700,0.796940928,0.967563291,0.985759494,1.000000000,1.000000000,1.000000000,1.000000000,1.000000000,1.000000000,1.000000000,1.000000000,0.952465717,0.709487078,0.325092300,0.756856540,0.847046414,0.651898734,0.604430380,0.822784810,0.993143460,0.956751055,0.920358650,0.851265823,0.929324895,0.929324895,0.847441983,0.803270042,0.839662447,0.877109705,0.949894515,0.861814346,0.631592827,0.358649789,0.453586498,0.877637131,1.000000000,1.000000000,1.000000000,1.000000000,1.000000000,1.000000000,1.000000000,1.000000000,0.994725738,0.958333333,16
0.208333333,0.719936709,0.535337553,0.318037975,0.916666667,0.710970464,0.291666667,0.112341772,0.542194093,0.751582278,0.789556962,0.297468354,0.343354430,0.360232068,0.301160338,0.619725738,0.293248945,0.428797468,0.568037975,0.194092827,0.787447257,0.570147679,0.238660338,0.247362869,0.574367089,0.486814346,0.176687764,0.688291139,0.503691983,0.431962025,0.940400844,0.337025316,0.927742616,0.995253165,0.572521097,0.242616034,0.345464135,0.570147679,0.338080169,0.520569620,0.599683544,0.238396624,0.535864979,0.316455696,0.189873418,0.481012658,0.685126582,0.391350211,0.212025316,0.531118143,0.294831224,0.499472574,0.710443038,0.814345992,0.552742616,0.403481013,0.218881857,0.407700422,0.281645570,0.272151899,0.443565401,0.158227848,0.362869198,0.529535865,0.088080169,0.377109705,0.393459916,0.279535865,0.503164557,0.370780591,0.168248945,0.431962025,0.529008439,0.792721519,0.832805907,0.674578059,0.284810127,0.593881857,0.294303797,0.583333333,20
0.208333333,0.469936709,0.231540084,0.378691983,0.263713080,0.121308017,0.284810127,0.577531646,0.254219409,0.161919831,0.311708861,0.289029536,0.242616034,0.664556962,0.816455696,0.394514768,0.297468354,0.396624473,0.363396624,0.825421941,0.436181435,0.142405063,0.368670886,0.536919831,0.360759494,0.701476793,0.766350211,0.409282700,0.223101266,0.319620253,0.276898734,0.875000000,0.263713080,0.366033755,0.298523207,0.138185654,0.477320675,0.933016878,0.406118143,0.083333333,0.247362869,0.272679325,0.640822785,0.453586498,0.434599156,0.387658228,0.259493671,0.304852321,0.290611814,0.147151899,0.461497890,0.502109705,0.267405063,0.162447257,0.294831224,0.321202532,0.795886076,0.412447257,0.562763713,0.717299578,0.666666667,0.666666667,0.381856540,0.435654008,0.606012658,0.868670886,0.267932489,0.347046414,0.136075949,0.398734177,0.099156118,0.208333333,0.455168776,0.212025316,0.227320675,0.189873418,0.102320675,0.284810127,0.452531646,0.166666667,18
0.833333333,0.640295359,0.447257384,0.425632911,0.658227848,0.947784810,0.901107595,0.755142405,0.529008439,0.110759494,0.143459916,0.413502110,0.722046414,0.879746835,0.976265823,0.945411392,0.850870253,0.728902954,0.600210970,0.471518987,0.398206751,0.401898734,0.498417722,0.436708861,0.660337553,0.912974684,1.000000000,1.000000000,1.000000000,1.000000000,1.000000000,1.000000000,1.000000000,0.986064412,0.883426457,0.626054852,0.658227848,0.785337553,0.917721519,0.997626582,0.981540084,0.965453586,0.922468354,0.900316456,0.996835443,1.000000000,1.000000000,0.963607595,0.859177215,0.666139241,0.700949367,0.797468354,0.893987342,0.990506329,0.963739451,0.874736287,0.821729958,0.917721519,0.982067511,1.000000000,1.000000000,1.000000000,1.000000000,0.892405063,0.876845992,0.949367089,0.997626582,0.973233122,0.918710443,0.886603376,0.917721519,0.933808017,0.949894515,0.912447257,0.815928270,0.719409283,0.281118143,0.368143460,0.708333333,0.708333333,14
0.708333333,0.261603376,0.526898734,0.387658228,0.712025316,0.604430380,0.441983122,0.793776371,0.958069620,0.987209916,0.997362869,1.000000000,1.000000000,1.000000000,1.000000000,0.881279668,0.525843882,0.333333333,0.424050633,0.435126582,0.662974684,0.646097046,0.568565401,0.585970464,0.419303797,0.660864979,0.533755274,0.973628692,0.819620253,0.638713080,0.711497890,0.431434599,0.380801688,0.631329114,0.828586498,0.503691983,0.271097046,0.916666667,0.919831224,0.999868143,0.989715190,0.959520042,0.997362869,0.734177215,0.449894515,0.560126582,0.896624473,0.890822785,0.384493671,0.598101266,0.845991561,0.903217300,0.913370253,0.889240506,0.875000000,0.571202532,0.205168776,0.199367089,0.446729958,0.731012658,0.714662447,0.617616034,0.735232068,0.796149789,0.675105485,0.313291139,0.262130802,0.440400844,0.231540084,0.365506329,0.649789030,0.739978903,0.274789030,0.532700422,0.228902954,0.074894515,0.069620253,0.910337553,0.776898734,0.208333333,26
0.875000000,0.475738397,0.298523207,0.475738397,0.201476793,0.634493671,0.652953586,0.395569620,0.314873418,0.525843882,0.455696203,0.330696203,0.396097046,0.291666667,0.457805907,0.378691983,0.397679325,0.528481013,0.718354430,0.370253165,0.636075949,0.202004219,0.011075949,0.593354430,0.327004219,0.241561181,0.549578059,0.212025316,0.655063291,0.368670886,0.742088608,0.555379747,0.430907173,0.641350211,0.561708861,0.564873418,0.665084388,0.270569620,0.411919831,0.485232068,0.206751055,0.433544304,0.270569620,0.707278481,0.302215190,0.381329114,0.799578059,0.178270042,0.738396624,0.397679325,0.543248945,0.380274262,0.257911392,0.325421941,0.710970464,0.794831224,0.618670886,0.599683544,0.754746835,0.450949367,0.754746835,0.885021097,0.737869198,0.712552743,0.358122363,0.250527426,0.457805907,0.483122363,0.750000000,0.361286920,0.683808017,0.853375527,0.486286920,0.274261603,0.442510549,0.308016878,0.622362869,0.541666667,0.541666667,0.291666667,16
0.666666667,0.578059072,0.357594937,0.590717300,0.083333333,0.115506329,0.468881857,0.521624473,0.291139241,0.265822785,0.242616034,0.316455696,0.280590717,0.226265823,0.411919831,0.274261603,0.276898734,0.898734177,0.461497890,0.416139241,0.758438819,0.527426160,0.334388186,0.345991561,0.606540084,0.468881857,0.381329114,0.470991561,0.869198312,0.231540084,0.291666667,0.291666667,0.387130802,0.569092827,0.467563291,0.233122363,0.050105485,0.703586498,0.744725738,0.319092827,0.227848101,0.390822785,0.661919831,0.328586498,0.559599156,0.220991561,0.610759494,0.401371308,0.091772152,0.551160338,0.599156118,0.101793249,0.582278481,0.217299578,0.356540084,0.273734177,0.713080169,0.234704641,0.481012658,0.789029536,0.416666667,0.287447257,0.614451477,0.414556962,0.650316456,0.466244726,0.470464135,0.789029536,0.587025316,0.477848101,0.243670886,0.208333333,0.186708861,0.639767932,0.287974684,0.368143460,0.021097046,0.154535865,0.286392405,0.333333333,26
0.458333333,0.683016878,0.907700422,0.987341772,1.000000000,1.000000000,1.000000000,1.000000000,1.000000000,1.000000000,1.000000000,1.000000000,1.000000000,1.000000000,0.975738397,0.818037975,0.682489451,0.743143460,0.825949367,0.788502110,0.751054852,0.677215190,0.731012658,0.819883966,0.913502110,0.938818565,0.947257384,1.000000000,1.000000000,0.976595464,0.644251055,0.231210443,0.546413502,0.255274262,0.436181435,0.702531646,0.608913502,0.615506329,0.845991561,0.872362869,0.085970464,0.147679325,0.104430380,0.217827004,0.518459916,0.634493671,0.641350211,0.833333333,0.833333333,0.827004219,0.677215190,0.597046414,0.675105485,0.655590717,0.647151899,0.630801688,0.665611814,0.833333333,0.796413502,0.540611814,0.503164557,0.808544304,0.664556962,0.738396624,0.833333333,0.815928270,0.791666667,0.737869198,0.536919831,0.503691983,0.765822785,0.791666667,0.791666667,0.829641350,0.885812236,0.747890295,0.424050633,0.275316456,0.408755274,0.708333333,12
0.375000000,0.756329114,0.408227848,0.607331224,0.483386076,0.616561181,0.423523207,0.263185654,0.504746835,0.831751055,0.205168776,0.789029536,0.472573840,0.638185654,0.608649789,0.319620253,0.650843882,0.344936709,0.597046414,0.575949367,0.724683544,0.873417722,0.899261603,0.502637131,0.477320675,0.780590717,0.911392405,0.978902954,0.806962025,0.539029536,0.478375527,0.744725738,0.949367089,0.410864979,0.435126582,0.450421941,0.896624473,0.573839662,0.253164557,0.382911392,0.382911392,0.514767932,0.541666667,0.297468354,0.602320675,0.492088608,0.410864979,0.564345992,0.281645570,0.244198312,0.502637131,0.519514768,0.261075949,0.234704641,0.487869198,0.231012658,0.654008439,0.277426160,0.585970464,0.665084388,0.379219409,0.344409283,0.405063291,0.179324895,0.655063291,0.238924051,0.391877637,0.393459916,0.150843882,0.466244726,0.251582278,0.338080169,0.404008439,0.751054852,0.181434599,0.358122363,0.023734177,0.051687764,0.285864979,0.625000000,6
1.000000000,1.000000000,1.000000000,1.000000000,1.000000000,1.000000000,1.000000000,1.000000000,1.000000000,1.000000000,1.000000000,0.985232068,0.932225738,0.758175105,0.584124473,0.614451477,0.804324895,0.867616034,0.930907173,0.922468354,0.859177215,0.795886076,0.791666667,0.869725738,0.967827004,0.999472574,1.000000000,1.000000000,1.000000000,1.000000000,1.000000000,1.000000000,1.000000000,1.000000000,1.000000000,1.000000000,1.000000000,1.000000000,1.000000000,0.948312236,0.916666667,0.916666667,0.916666667,0.669831224,0.576476793,0.684071730,0.937236287,0.987341772,0.871835443,0.617879747,0.261867089,0.770042194,0.978902954,1.000000000,0.997033228,0.819026899,0.580102848,0.489451477,0.649789030,0.396624473,0.143459916,0.013713080,0.074894515,0.359704641,0.290084388,0.269514768,0.396097046,0.522679325,0.514767932,0.567510549,0.718090717,0.955432489,0.993407173,0.965387658,0.878626055,0.716442511,0.467827004,0.565400844,0.770833333,0.770833333,14
0.958333333,0.991561181,1.000000000,1.000000000,1.000000000,1.000000000,0.977518460,0.793941192,0.540084388,0.325949367,0.292721519,0.581223629,0.453059072,0.322257384,0.477848101,0.976265823,0.920886076,0.837816456,0.584915612,0.315928270,0.880801688,0.636603376,0.723101266,0.860759494,0.810126582,0.677215190,0.605485232,0.583333333,0.638185654,0.771097046,0.904008439,0.976793249,1.000000000,1.000000000,1.000000000,1.000000000,1.000000000,1.000000000,1.000000000,1.000000000,1.000000000,1.000000000,0.938291139,0.838607595,0.753691983,0.786919831,0.820147679,0.893459916,0.911919831,0.796413502,0.846255274,0.896097046,0.916666667,0.861286920,0.724156118,0.923523207,0.985759494,0.952531646,0.869462025,0.800105485,0.933016878,0.971782700,0.988396624,0.989978903,0.959915612,0.993143460,0.993407173,0.940268987,0.870253165,0.853639241,0.837025316,0.897943038,0.898338608,0.823575949,0.743670886,0.344936709,0.224683544,0.225210970,0.325949367,0.625000000,26
0.333333333,0.594936709,0.809071730,0.916666667,0.916666667,0.916666667,0.724683544,0.512130802,0.444620253,0.638185654,0.801687764,0.938818565,0.991297468,0.974947257,0.958597046,0.443565401,0.523734177,0.800896624,0.981803797,0.998154008,0.996373945,0.957212553,0.938818565,1.000000000,1.000000000,1.000000000,1.000000000,1.000000000,1.000000000,0.968354430,0.731540084,0.569092827,0.632120253,0.681170886,0.730221519,0.642668776,0.462816456,0.304324895,0.565928270,0.650316456,0.683016878,0.737869198,0.868670886,0.937236287,0.980485232,1.000000000,1.000000000,1.000000000,0.750164821,0.417556698,0.337025316,0.878164557,0.976265823,1.000000000,1.000000000,0.993143460,0.960443038,0.438291139,0.466244726,0.704641350,0.795358650,0.828059072,0.805907173,0.856276371,0.935126582,0.926951477,0.918776371,0.965189873,1.000000000,0.987341772,0.921940928,0.886603376,0.875000000,0.693037975,0.281645570,0.608649789,0.841508439,0.959915612,0.989583333,0.989583333,12
0.875000000,0.955168776,0.765822785,0.823839662,0.126582278,0.506329114,0.625000000,0.869725738,0.813291139,0.832278481,0.823312236,0.815928270,0.447784810,0.209388186,0.545358650,0.528481013,0.174050633,0.345991561,0.606540084,0.791666667,0.841772152,0.915611814,0.645042194,0.953059072,0.912974684,0.881329114,0.998417722,0.878164557,0.835970464,0.795886076,0.773734177,0.753691983,0.848101266,0.657172996,0.376582278,0.179852321,0.520569620,0.849156118,0.731012658,0.561708861,0.521624473,0.592299578,0.674578059,0.701476793,0.819620253,0.791666667,0.781118143,0.588607595,0.155063291,0.857594937,0.754219409,0.781118143,0.632383966,0.912974684,0.600210970,0.697257384,0.926687764,0.853902954,0.800105485,0.696729958,0.816983122,0.903481013,0.809071730,0.547468354,0.274261603,0.521097046,0.874472574,0.859704641,0.722046414,0.625000000,0.653481013,0.758966245,0.852848101,0.772679325,0.708333333,0.695675105,0.629746835,0.676160338,0.779008439,0.458333333,16
0.875000000,0.154008439,0.588607595,0.632911392,0.582278481,0.531118143,0.673523207,0.392932489,0.414029536,0.564345992,0.727848101,0.463607595,0.786392405,0.265295359,0.235759494,0.329113924,0.541666667,0.547995781,0.590189873,0.349683544,0.360759494,0.639240506,0.550632911,0.613924051,0.425632911,0.367616034,0.434071730,0.109177215,0.643459916,0.659282700,0.400316456,0.535337553,0.697784810,0.330432489,0.756065401,0.926424051,1.000000000,0.942592959,0.714415216,0.463607595,0.585443038,0.801819620,0.857199367,0.303797468,0.410337553,0.429324895,0.530590717,0.663502110,0.235232068,0.893459916,0.649789030,0.448839662,0.574367089,0.914029536,0.868143460,0.936708861,0.572784810,0.452531646,0.457542194,0.258175105,0.440928270,0.679324895,0.900843882,0.258438819,0.660337553,0.508438819,0.242616034,0.278481013,0.651898734,0.816455696,0.428270042,0.662447257,0.744725738,0.309071730,0.309071730,0.437236287,0.694620253,0.276898734,0.793776371,0.916666667,10
0.750000000,0.787447257,0.824894515,0.804324895,0.866033755,0.875527426,0.833333333,0.845464135,0.890822785,0.956487342,0.937763713,0.919040084,0.883966245,0.931962025,0.788502110,0.806962025,0.958333333,0.969936709,0.992616034,0.955168776,0.917721519,0.807489451,0.598628692,0.793248945,0.964135021,1.000000000,1.000000000,1.000000000,1.000000000,1.000000000,1.000000000,1.000000000,0.778481013,0.680907173,0.643459916,0.606012658,0.583333333,0.572784810,0.547995781,0.602320675,0.939345992,0.887658228,0.843881857,0.887130802,0.780590717,0.426687764,0.224683544,0.436708861,0.511603376,0.581751055,0.544303797,0.680907173,0.585970464,0.647151899,0.641877637,0.655063291,0.777426160,0.804852321,0.724156118,0.831223629,0.756329114,0.612869198,0.583333333,0.686708861,0.706751055,0.736286920,0.820147679,0.782700422,0.731012658,0.582805907,0.545358650,0.642932489,0.637130802,0.726265823,0.749472574,0.725210970,0.724683544,0.717299578,0.887130802,0.625000000,14
0.208333333,0.543248945,0.550632911,0.177215190,0.333333333,0.172468354,0.473101266,0.040084388,0.744725738,0.180379747,0.371308017,0.220991561,0.197257384,0.092299578,0.285337553,0.293776371,0.515822785,0.827004219,0.535864979,0.672468354,0.267405063,0.579641350,0.208333333,0.349683544,0.271624473,0.261603376,0.262130802,0.292194093,0.359177215,0.312236287,0.279008439,0.128691983,0.351793249,0.505274262,0.320675105,0.319620253,0.888185654,0.545358650,0.191455696,0.364978903,0.184071730,0.281118143,0.457278481,0.573312236,0.268987342,0.676687764,0.813291139,0.930907173,0.700421941,0.266877637,0.192510549,0.429852321,0.190928270,0.104430380,0.160864979,0.145569620,0.449367089,0.791666667,0.594409283,0.114715190,0.555379747,0.320675105,0.408227848,0.930379747,0.787447257,0.107067511,0.708333333,0.708333333,0.125527426,0.310126582,0.623417722,0.737869198,0.344409283,0.952531646,0.758966245,0.350210970,0.970991561,0.828059072,0.634229958,0.041666667,22
1.000000000,0.616297468,0.280063291,0.337552743,0.112869198,0.364451477,0.164029536,0.598101266,0.441455696,0.433544304,0.552742616,0.104957806,0.258438819,0.371835443,0.647151899,0.312763713,0.243143460,0.452531646,0.129746835,0.390822785,0.292194093,0.589135021,0.751054852,0.823312236,0.869725738,0.726265823,0.625000000,0.714662447,0.639240506,0.255801688,0.612341772,0.664029536,0.697784810,0.918248945,0.740506329,0.869725738,0.858122363,0.648206751,0.266350211,0.166666667,0.018987342,0.152426160,0.291139241,0.748945148,0.819620253,0.397151899,0.768459916,0.803797468,0.323312236,0.125000000,0.075949367,0.103375527,0.767405063,0.669831224,0.746308017,0.811181435,0.728375527,0.708333333,0.848101266,0.786919831,0.889240506,0.130274262,0.479957806,0.695147679,0.437236287,0.406645570,0.341244726,0.574894515,0.502109705,0.303270042,0.370780591,0.448312236,0.292721519,0.416666667,0.309071730,0.212025316,0.263185654,0.268987342,0.153481013,0.250000000,12
0.125000000,0.129746835,0.506329114,0.757911392,0.960443038,1.000000000,1.000000000,0.981540084,0.787447257,0.731012658,0.604430380,0.750000000,0.775316456,0.882383966,0.700949367,0.642932489,0.566983122,0.702531646,0.833333333,0.853375527,0.916666667,0.905590717,0.875000000,0.850738397,0.766350211,0.747890295,0.572784810,0.184071730,0.517405063,0.716772152,0.795886076,0.715717300,0.757911392,0.673523207,0.625000000,0.698839662,0.810654008,0.755274262,0.646624473,0.337025316,0.294831224,0.260548523,0.199367089,0.579113924,0.726793249,0.304852321,0.266877637,0.607067511,0.708333333,0.785864979,0.701476793,0.678797468,0.735759494,0.638185654,0.668776371,0.737341772,0.247890295,0.342299578,0.580696203,0.158227848,0.348101266,0.490506329,0.532700422,0.707805907,0.648734177,0.796413502,0.902953586,0.881329114,0.839135021,0.869725738,0.801160338,0.829113924,0.833333333,0.756329114,0.047468354,0.276898734,0.652426160,0.544831224,0.623945148,0.583333333,18
0.833333333,0.589662447,0.485759494,0.584915612,0.665611814,0.561181435,0.459915612,0.564345992,0.526371308,0.662183544,0.878955696,1.000000000,1.000000000,1.000000000,1.000000000,1.000000000,1.000000000,1.000000000,1.000000000,1.000000000,0.955263548,0.812485578,0.613396624,0.521097046,0.739451477,0.565400844,0.451476793,0.555907173,0.617616034,0.570147679,0.682489451,0.891350211,0.962552743,0.991033755,1.000000000,1.000000000,0.993374209,0.920490506,0.760087025,0.368670886,0.090189873,0.157700422,0.488924051,0.384493671,0.580696203,0.806962025,0.844936709,0.738924051,0.725210970,0.864451477,0.923259494,0.975474684,0.861550633,0.600474684,0.384493671,0.454113924,0.670886076,0.897151899,0.962025316,0.892405063,0.733122363,0.071729958,0.805907173,0.419831224,0.337025316,0.511075949,0.284810127,0.493670886,0.803797468,0.955696203,1.000000000,0.939016350,0.760614451,0.503889768,0.465717300,0.691455696,0.869066456,0.951081224,1.000000000,1.000000000,14
0.500000000,0.812236287,0.796940928,0.724156118,0.677215190,0.581223629,0.722573840,0.740506329,0.687236287,0.780063291,0.875000000,0.811708861,0.716772152,0.841772152,0.666139241,0.495780591,0.417721519,0.763185654,0.684071730,0.566983122,0.602848101,0.736814346,0.842299578,0.784282700,0.828586498,0.836497890,0.681434599,0.720464135,0.750000000,0.763713080,0.841772152,0.910337553,0.754219409,0.712025316,0.708333333,0.773734177,0.881856540,0.779535865,0.757911392,0.813818565,0.794303797,0.783755274,0.861814346,0.928270042,0.958333333,0.939345992,0.822257384,0.707278481,0.668248945,0.666666667,0.666666667,0.763185654,0.496308017,0.643987342,0.718881857,0.558544304,0.591244726,0.684599156,0.610759494,0.688818565,0.733122363,0.660864979,0.625000000,0.628164557,0.862341772,0.875000000,0.566455696,0.721518987,0.907700422,0.852848101,0.839135021,0.664029536,0.569092827,0.676687764,0.664556962,0.707805907,0.591244726,0.651371308,0.841244726,0.958333333,18
0.583333333,0.479957806,0.473101266,0.640822785,0.345464135,0.433544304,0.607594937,0.328586498,0.457805907,0.566983122,0.180907173,0.498945148,0.497362869,0.343881857,0.457805907,0.495780591,0.338080169,0.611814346,0.528481013,0.524789030,0.647679325,0.574894515,0.377637131,0.331223629,0.364451477,0.467299578,0.566455696,0.225210970,0.228375527,0.504219409,0.209388186,0.437236287,0.441983122,0.260548523,0.502109705,0.614978903,0.328586498,0.513185654,0.563818565,0.367616034,0.674050633,0.439873418,0.381856540,0.603902954,0.429324895,0.526898734,0.742616034,0.331223629,0.396097046,0.587025316,0.337025316,0.461497890,0.640295359,0.383966245,0.664556962,0.682489451,0.381856540,0.718881857,0.575949367,0.326476793,0.715717300,0.591244726,0.395042194,0.650316456,0.402426160,0.386075949,0.449894515,0.439345992,0.406645570,0.690928270,0.386075949,0.179324895,0.036392405,0.296940928,0.487869198,0.315400844,0.241561181,0.354430380,0.464135021,0.375000000,18
0.708333333,0.401898734,0.522151899,0.792721519,0.292194093,0.847310127,0.980353376,0.953520570,0.450125264,0.728375527,0.290084388,0.335443038,0.311708861,0.287447257,0.363924051,0.277953586,0.225738397,0.325421941,0.708333333,0.708333333,0.240506329,0.378164557,0.934071730,1.000000000,0.571202532,0.572257384,0.716772152,0.158227848,0.378164557,0.287447257,0.704641350,0.756329114,0.627109705,0.132383966,0.348101266,0.498417722,0.978902954,0.291666667,0.359704641,0.204641350,0.381329114,0.340717300,0.218354430,0.372362869,0.318037975,0.235759494,0.208333333,0.183016878,0.236286920,0.831223629,0.174578059,0.228902954,0.349683544,0.283227848,0.225210970,0.604430380,0.297468354,0.591772152,0.275843882,0.214662447,0.685126582,0.462552743,0.345991561,0.547468354,0.361814346,0.425632911,0.868670886,0.528481013,0.207278481,0.250000000,0.272151899,0.285864979,0.213607595,0.151898734,0.103375527,0.321202532,0.362869198,0.552215190,0.316983122,0.125000000,14
0.458333333,0.291666667,0.384493671,0.440928270,0.397679325,0.413502110,0.610759494,0.187763713,0.613396624,0.312763713,0.464135021,0.294303797,0.418776371,0.376582278,0.512130802,0.647151899,0.655063291,0.388713080,0.083860759,0.246308017,0.470464135,0.381329114,0.458333333,0.306434599,0.026371308,0.721518987,0.310126582,0.608122363,0.608649789,0.233649789,0.526898734,0.368143460,0.595464135,0.305379747,0.541666667,0.354957806,0.420886076,0.507383966,0.600210970,0.576476793,0.320675105,0.412974684,0.146624473,0.205168776,0.671940928,0.698575949,0.708333333,0.682489451,0.355485232,0.465189873,0.352320675,0.183016878,0.484177215,0.948312236,0.734177215,0.306962025,0.522679325,0.744725738,0.497362869,0.267932489,0.409810127,0.293776371,0.391350211,0.666666667,0.529535865,0.720464135,0.664029536,0.506329114,0.835443038,0.547468354,0.540084388,0.634493671,0.291666667,0.360232068,0.601265823,0.518987342,0.229430380,0.069620253,0.420886076,0.250000000,26
0.916666667,0.986286920,0.825290084,0.576081224,0.516350211,0.664029536,0.462025316,0.705696203,0.436708861,0.226793249,0.284810127,0.472310127,0.350474684,0.228639241,0.614451477,0.503691983,0.510021097,0.966772152,1.000000000,1.000000000,1.000000000,0.876681171,0.558840981,0.351793249,0.860232068,0.616561181,0.583333333,0.467299578,0.358649789,0.285864979,0.159282700,0.611814346,0.911392405,1.000000000,0.883966245,0.602056962,0.294303797,0.781645570,0.677742616,0.576476793,0.689609705,0.922204641,0.971848629,0.706421414,0.322323312,0.604957806,0.659810127,0.474683544,0.775316456,0.984177215,0.718486287,0.401239451,0.545358650,0.939873418,0.989319620,0.910996835,0.750922996,0.527426160,0.388185654,0.335970464,0.360232068,0.812763713,0.966244726,1.000000000,0.980485232,0.958333333,0.964135021,0.998945148,1.000000000,1.000000000,1.000000000,1.000000000,1.000000000,1.000000000,1.000000000,0.945147679,0.546413502,0.399789030,0.779008439,0.291666667,10
0.666666667,0.383438819,0.533227848,0.464662447,0.508438819,0.552215190,0.595991561,0.462552743,0.386075949,0.461497890,0.272151899,0.630274262,0.883966245,0.889240506,0.343354430,0.346518987,0.180379747,0.340189873,0.640822785,0.345991561,0.539556962,0.364451477,0.203586498,0.152953586,0.141613924,0.426160338,0.519514768,0.444620253,0.516877637,0.484177215,0.577004219,0.226793249,0.496835443,0.554324895,0.247890295,0.359704641,0.073839662,0.145569620,0.320675105,0.414556962,0.226265823,0.881856540,0.458333333,0.510021097,0.664556962,0.415611814,0.568829114,0.524261603,0.327531646,0.495253165,0.425632911,0.492616034,0.429324895,0.462552743,0.862869198,0.995516878,0.647547468,0.102782173,0.705168776,0.256329114,0.485759494,0.148997890,0.433544304,0.722046414,0.968354430,1.000000000,0.884295886,0.483649789,0.392932489,0.419303797,0.321729958,0.664556962,0.725738397,0.753691983,0.791666667,0.791666667,0.968354430,1.000000000,1.000000000,1.000000000,18
0.291666667,0.500000000,0.916666667,0.708333333,0.791666667,0.958333333,0.833333333,0.708333333,0.833333333,0.916666667,0.833333333,0.750000000,0.791666667,0.666666667,0.916666667,0.375000000,0.250000000,0.375000000,0.083333333,0.791666667,0.333333333,0.166666667,0.583333333,0.666666667,0.750000000,0.666666667,0.750000000,0.625000000,0.625000000,0.750000000,0.666666667,0.791666667,0.708333333,0.625000000,0.666666667,0.833333333,0.875000000,0.708333333,0.875000000,0.875000000,0.791666667,0.375000000,0.208333333,0.875000000,0.666666667,0.791666667,0.833333333,0.625000000,0.708333333,0.958333333,0.666666667,0.583333333,0.791666667,0.625000000,0.625000000,0.750000000,0.750000000,0.250000000,0.708333333,0.625000000,0.708333333,0.666666667,0.416666667,0.833333333,0.958333333,0.541666667,0.708333333,0.833333333,0.625000000,0.750000000,0.458333333,0.541666667,0.750000000,0.708333333,0.625000000,0.916666667,0.458333333,0.666666667,0.875000000,0.708333333,14
0.166666667,0.415084388,0.329641350,0.161919831,0.417194093,0.341244726,0.282172996,0.644514768,0.261603376,0.418248945,0.709388186,0.334915612,0.586497890,0.594936709,0.358649789,0.529008439,0.401371308,0.300105485,0.431434599,0.282700422,0.286919831,0.574894515,0.647679325,0.694092827,0.421940928,0.395569620,0.362341772,0.111286920,0.627637131,0.745780591,0.369198312,0.750527426,0.777426160,0.513185654,0.183544304,0.621308017,0.450421941,0.312763713,0.726265823,0.507911392,0.373417722,0.791139241,0.428270042,0.490506329,0.655063291,0.778481013,0.340717300,0.274261603,0.533227848,0.880537975,0.907436709,0.386603376,0.680379747,0.429324895,0.305907173,0.495253165,0.213607595,0.292721519,0.503691983,0.267405063,0.756329114,0.430379747,0.599683544,0.281645570,0.319620253,0.359177215,0.164029536,0.627109705,0.226793249,0.622362869,0.356540084,0.359177215,0.729430380,0.396624473,0.356540084,0.619198312,0.187763713,0.298523207,0.456751055,0.750000000,2
0.791666667,0.944620253,1.000000000,1.000000000,1.000000000,1.000000000,1.000000000,1.000000000,1.000000000,1.000000000,1.000000000,1.000000000,1.000000000,1.000000000,1.000000000,0.998945148,0.937763713,0.866561181,0.790084388,0.713607595,0.879219409,0.958333333,0.939345992,0.847573840,0.807489451,0.821202532,0.878691983,0.909282700,0.916666667,0.940928270,0.998417722,0.952531646,0.906645570,0.903481013,0.995253165,0.985495781,0.970200422,0.965189873,0.995780591,1.000000000,1.000000000,1.000000000,1.000000000,0.928797468,0.862341772,0.839662447,0.962025316,0.978902954,0.928270042,0.836497890,0.862869198,0.893459916,0.924050633,0.954641350,0.958333333,0.974156118,0.986946203,0.902821730,0.806566456,0.776371308,0.827004219,0.735232068,0.643459916,0.599156118,0.645042194,0.690928270,0.765295359,0.857067511,0.948839662,0.876054852,0.784282700,0.716244726,0.762130802,0.808016878,0.819620253,0.796940928,0.858122363,0.830696203,0.791666667,0.791666667,16
0.625000000,0.704641350,0.555116034,0.426160338,0.588080169,1.000000000,1.000000000,0.970464135,0.791139241,0.577531646,0.479957806,0.742088608,0.934335443,0.923655063,0.650843882,0.372362869,0.590189873,0.524261603,0.514767932,0.353375527,0.375000000,0.375000000,0.351793249,0.260548523,0.360232068,0.405590717,0.512130802,0.868143460,1.000000000,1.000000000,0.825949367,0.525580169,0.694620253,0.506329114,0.422468354,0.268987342,0.629746835,0.822784810,0.953586498,0.135548523,0.455168776,0.214662447,0.404008439,0.792721519,0.370253165,0.402953586,0.757911392,0.351265823,0.303797468,0.489978903,0.458333333,0.603902954,0.971518987,0.989319620,0.919040084,0.620780591,0.326476793,0.504219409,0.725210970,0.873945148,0.763713080,0.696729958,0.578059072,0.491033755,0.774261603,0.566983122,0.402953586,0.706751055,0.773206751,0.843354430,0.488924051,0.341772152,0.504746835,0.753691983,0.755274262,0.675105485,0.127637131,0.281118143,0.900843882,0.833333333,12
0.333333333,1.000000000,0.333333333,0.916666667,0.416666667,0.875000000,0.625000000,0.625000000,0.416666667,0.875000000,0.750000000,0.625000000,0.875000000,0.416666667,0.791666667,0.416666667,0.833333333,0.500000000,0.958333333,0.541666667,0.625000000,0.375000000,0.875000000,0.375000000,0.208333333,0.416666667,0.500000000,0.750000000,0.458333333,0.333333333,0.541666667,0.375000000,0.291666667,0.541666667,0.458333333,1.000000000,0.625000000,0.250000000,0.833333333,0.458333333,0.958333333,0.500000000,0.208333333,0.541666667,0.750000000,0.666666667,0.375000000,0.916666667,0.541666667,0.750000000,0.937500000,0.718750000,0.500000000,0.666666667,0.625000000,0.666666667,0.500000000,0.166666667,0.541666667,0.416666667,0.083333333,0.625000000,0.833333333,0.750000000,1.000000000,1.000000000,1.000000000,0.916666667,0.895833333,0.875000000,1.000000000,0.895833333,0.791666667,0.875000000,0.875000000,0.875000000,0.916666667,0.583333333,0.791666667,0.166666667,16
0.250000000,0.702531646,0.931434599,1.000000000,0.912776899,0.664491034,0.297995781,0.715717300,0.934071730,1.000000000,1.000000000,1.000000000,1.000000000,1.000000000,1.000000000,0.819669699,0.494709256,0.318037975,0.749208861,0.731803797,0.714398734,0.481540084,0.434071730,0.653217300,0.601002110,0.548786920,0.391350211,0.518987342,0.552215190,0.384493671,0.427215190,0.566455696,0.766877637,0.928270042,1.000000000,0.922336498,0.650975738,0.363792194,0.395569620,0.271097046,0.305907173,0.605485232,0.920358650,0.955168776,0.388713080,0.431434599,0.708860759,0.875000000,0.879219409,0.914029536,0.884493671,0.950949367,0.972310127,0.920094937,0.865506329,0.795886076,0.235759494,0.445147679,0.799578059,0.970464135,1.000000000,1.000000000,0.933544304,0.890295359,0.933544304,0.996835443,0.985232068,0.959124473,0.789556962,0.911392405,1.000000000,0.960443038,0.893987342,0.998417722,1.000000000,0.955432489,0.862869198,0.846518987,0.958333333,0.958333333,14
0.250000000,0.236286920,0.303797468,0.501054852,0.334388186,0.463080169,0.294303797,0.827267932,0.621044304,0.279535865,0.498945148,0.311181435,0.736286920,0.271097046,0.726793249,0.564873418,0.426687764,0.266350211,0.572257384,0.879219409,0.321202532,0.614451477,0.844936709,0.553797468,0.697784810,0.287974684,0.635548523,0.853902954,0.578586498,0.526371308,0.232067511,0.611814346,0.280063291,0.511075949,0.497890295,0.381856540,0.715189873,0.324894515,0.603375527,0.312236287,0.457805907,0.386603376,0.557489451,0.797995781,0.875000000,0.875000000,0.685126582,0.725210970,0.566983122,0.294303797,0.380801688,0.459915612,0.333333333,0.393459916,0.268987342,0.837025316,0.250527426,0.534282700,0.658227848,0.409282700,0.203059072,0.422995781,0.558016878,0.412447257,0.289029536,0.279008439,0.470991561,0.341772152,0.729957806,0.970464135,0.938291139,0.502637131,0.680379747,0.214135021,0.629746835,0.372890295,0.440400844,0.470991561,0.583860759,0.416666667,22
0.875000000,0.852848101,0.526371308,0.360232068,0.634493671,0.352320675,0.639767932,0.502637131,0.465717300,0.672995781,0.475210970,0.514240506,0.693565401,0.461497890,0.336497890,0.965189873,0.624472574,0.330432489,0.664161392,0.473628692,0.202004219,0.314345992,0.444092827,0.790084388,0.779535865,0.375527426,0.577004219,0.514240506,0.073839662,0.532700422,0.414556962,0.551160338,0.631856540,0.642405063,0.629746835,0.833069620,0.866693038,0.166139241,0.166139241,0.367879747,0.291666667,0.348628692,0.831223629,0.756329114,0.311181435,0.645569620,0.541139241,0.512130802,0.512130802,0.451476793,0.316983122,0.546413502,0.227320675,0.042721519,0.108649789,0.318565401,0.439873418,0.945147679,0.850210970,0.895042194,0.893459916,0.769514768,0.796940928,0.915084388,0.803006329,0.634889241,0.050105485,0.678797468,0.422995781,0.586497890,0.399261603,0.443565401,0.564873418,0.909018987,0.976265823,0.477848101,0.443037975,0.146624473,0.526107595,0.562500000,4
0.791666667,0.928797468,0.985232068,0.980485232,0.946202532,0.926160338,0.994725738,0.936708861,0.868143460,0.867088608,0.935654008,1.000000000,1.000000000,0.941983122,0.959915612,0.985759494,0.951476793,0.917194093,0.882911392,0.532172996,0.409282700,0.552215190,0.706487342,0.860759494,0.906118143,0.513185654,0.306434599,0.547995781,0.871835443,0.803270042,0.820147679,0.812236287,0.805379747,0.839662447,0.873945148,0.841772152,0.859177215,0.856540084,0.822257384,0.787974684,0.753691983,0.902953586,0.819092827,0.692510549,0.683544304,0.753164557,0.856012658,0.791139241,0.811708861,0.914556962,1.000000000,1.000000000,0.844672996,0.643855485,0.685126582,0.875000000,0.849683544,0.575421941,0.872362869,0.909282700,0.894514768,0.968354430,0.831223629,0.694092827,0.652953586,0.635812236,0.738924051,0.994725738,0.960443038,0.942246835,0.925105485,0.777426160,0.643459916,0.828059072,0.759493671,0.750000000,0.816455696,0.904535865,0.958333333,0.958333333,0
0.250000000,0.627109705,0.330696203,0.762130802,0.416666667,0.635021097,0.454641350,0.297995781,0.492088608,0.339662447,0.527426160,0.466244726,0.549050633,0.479957806,0.053797468,0.405063291,0.476265823,0.362341772,0.575949367,0.339662447,0.888185654,0.865506329,0.952004219,0.789029536,0.284810127,0.014767932,0.178270042,0.772151899,0.497890295,0.257911392,0.463607595,0.514240506,0.441983122,0.300105485,0.656645570,0.698839662,0.387130802,0.024261603,0.616561181,0.334388186,0.416666667,0.091772152,0.343881857,0.521097046,0.595991561,0.406645570,0.444620253,0.500000000,0.744198312,0.604957806,0.769514768,0.642405063,0.579113924,0.246308017,0.098101266,0.283755274,0.243143460,0.708333333,0.619725738,0.150843882,0.041139241,0.327531646,0.765822785,0.476793249,0.342299578,0.118670886,0.429852321,0.607067511,0.121835443,0.076476793,0.349683544,0.130274262,0.041666667,0.075421941,0.375000000,0.252637131,0.412447257,0.532172996,0.590189873,0.250000000,0
0.250000000,0.460970464,0.417721519,0.346518987,0.591244726,0.320147679,0.581751055,0.522679325,0.396097046,0.720991561,0.245253165,0.641350211,0.579113924,0.376582278,0.866561181,0.331751055,0.565400844,0.717299578,0.407172996,0.644514768,0.340717300,0.577531646,0.499472574,0.768459916,0.325421941,0.534282700,0.621835443,0.301160338,0.692510549,0.243670886,0.522151899,0.669303797,0.247362869,0.657700422,0.379746835,0.860759494,0.693829114,0.263449367,0.791139241,0.469936709,0.647151899,0.191455696,0.833333333,0.748945148,0.343881857,0.451476793,0.133966245,0.563291139,0.234177215,0.723101266,0.748417722,0.261603376,0.736023207,0.913238397,0.431434599,0.605485232,0.467563291,0.393987342,0.511075949,0.585443038,0.180379747,0.670886076,0.324367089,0.406645570,0.520569620,0.131329114,0.681434599,0.274789030,0.330696203,0.526371308,0.156645570,0.474156118,0.289029536,0.618143460,0.243143460,0.400316456,0.233649789,0.274789030,0.368670886,0.125000000,2
0.125000000,0.670886076,0.640822785,0.364978903,0.624472574,0.590717300,0.630274262,0.486286920,0.361286920,0.188291139,0.662447257,0.383966245,0.717827004,0.702531646,0.472573840,0.412447257,0.611286920,0.666666667,0.508438819,0.372362869,0.781645570,0.268459916,0.225210970,0.406645570,0.646624473,0.493143460,0.707805907,0.250000000,0.750527426,0.509493671,0.604957806,0.294567511,0.301687764,0.174050633,0.779008439,0.541666667,0.351793249,0.760812236,0.393987342,0.284282700,0.194092827,0.464662447,0.323839662,0.609704641,0.389767932,0.739451477,0.232067511,0.109704641,0.458860759,0.576476793,0.618143460,0.320675105,0.274261603,0.318565401,0.321729958,0.188291139,0.195675105,0.216772152,0.389240506,0.272151899,0.522151899,0.505801688,0.133438819,0.250527426,0.252109705,0.650843882,0.397151899,0.158227848,0.179324895,0.158755274,0.472573840,0.374472574,0.431962025,0.218881857,0.276371308,0.520042194,0.833333333,0.663502110,0.250000000,0.041666667,8
0.958333333,0.372890295,0.216772152,0.538502110,0.443565401,0.193037975,0.561181435,0.317510549,0.587552743,0.558544304,0.110232068,0.554324895,0.438291139,0.709388186,0.387658228,0.690928270,0.226793249,0.684071730,0.282172996,0.270042194,0.322784810,0.280590717,0.273206751,0.478902954,0.643459916,0.261075949,0.429852321,0.555907173,0.642405063,0.597046414,0.507383966,0.873417722,1.000000000,0.878164557,0.511075949,0.508438819,0.529535865,0.439873418,0.529535865,0.559071730,0.896624473,0.796149789,0.479694093,0.582805907,0.420358650,0.575949367,0.528481013,0.621835443,0.925632911,0.984177215,0.815400844,0.439345992,0.730485232,0.455168776,0.265295359,0.262658228,0.722573840,0.525843882,0.650316456,0.890031646,0.739715190,0.476002110,0.285864979,0.150316456,0.766350211,0.368143460,0.632911392,0.955696203,1.000000000,1.000000000,0.760021097,0.335970464,0.253691983,0.519514768,0.346518987,0.847573840,0.975210970,0.999472574,1.000000000,1.000000000,4
0.916666667,0.916666667,0.916666667,0.916666667,0.916666667,0.947257384,0.789556962,0.177215190,0.577531646,0.941983122,0.938818565,0.967299578,0.899789030,0.821202532,0.884493671,0.912447257,0.876054852,0.981012658,0.939873418,0.916666667,0.916666667,0.873945148,0.827531646,0.943565401,0.797995781,0.896097046,0.887130802,0.923523207,0.920358650,0.861286920,0.824894515,0.801160338,0.910337553,0.402426160,0.291666667,0.220464135,0.295886076,0.537447257,0.732067511,0.820147679,0.638185654,0.186181435,0.254219409,0.542194093,0.493143460,0.233649789,0.365506329,0.708333333,0.708333333,0.774789030,0.875527426,0.916666667,0.934071730,0.934071730,0.868143460,0.833333333,0.833333333,0.833333333,0.833333333,0.877637131,0.950421941,0.953586498,0.820675105,0.753164557,0.862341772,0.907172996,0.970464135,1.000000000,1.000000000,0.988924051,0.906118143,0.588607595,0.952531646,1.000000000,1.000000000,1.000000000,0.984177215,0.968881857,0.915611814,0.333333333,16
0.375000000,0.532700422,0.712025316,0.373945148,0.412974684,0.603902954,0.539556962,0.325421941,0.466244726,0.744725738,0.381329114,0.208860759,0.449367089,0.439873418,0.392405063,0.490506329,0.550105485,0.407700422,0.542721519,0.569092827,0.554324895,0.429324895,0.396097046,0.577531646,0.559599156,0.435654008,0.493670886,0.573839662,0.475210970,0.429324895,0.375000000,0.558544304,0.355485232,0.432489451,0.564873418,0.354957806,0.218881857,0.251582278,0.403481013,0.331223629,0.421413502,0.570147679,0.342299578,0.135548523,0.189345992,0.353902954,0.370780591,0.294303797,0.425105485,0.451476793,0.118670886,0.207278481,0.177742616,0.277953586,0.391350211,0.304324895,0.339135021,0.561181435,0.511075949,0.284810127,0.305907173,0.208333333,0.344936709,0.310126582,0.225738397,0.266877637,0.311708861,0.488924051,0.375000000,0.303797468,0.251582278,0.356012658,0.370780591,0.111814346,0.232067511,0.494198312,0.277426160,0.328586498,0.314873418,0.541666667,6
0.583333333,0.456223629,0.491033755,0.551160338,0.702531646,0.244725738,0.260548523,0.605485232,0.680379747,0.872362869,0.594409283,0.546940928,0.782700422,0.610232068,0.500527426,0.265822785,0.296940928,0.309599156,0.404008439,0.415611814,0.360759494,0.524789030,0.487341772,0.274261603,0.233649789,0.310654008,0.402426160,0.566455696,0.578059072,0.872362869,0.477848101,0.364978903,0.421940928,0.324367089,0.495780591,0.136075949,0.487341772,0.673523207,0.462552743,0.668248945,0.696202532,0.415611814,0.407172996,0.512658228,0.969936709,0.477320675,0.525843882,0.268459916,0.491033755,0.261075949,0.386075949,0.374472574,0.497890295,0.328586498,0.329641350,0.375000000,0.810126582,0.746835443,0.353375527,0.263713080,0.354430380,0.339662447,0.434599156,0.333333333,0.114978903,0.366033755,0.379746835,0.716244726,0.495253165,0.583860759,0.259493671,0.319620253,0.166666667,0.324894515,0.196202532,0.272151899,0.130274262,0.322257384,0.235759494,0.541666667,6
0.041666667,0.661919831,0.951476793,1.000000000,1.000000000,1.000000000,1.000000000,1.000000000,1.000000000,1.000000000,1.000000000,1.000000000,0.978902954,0.967299578,0.996835443,1.000000000,1.000000000,1.000000000,1.000000000,1.000000000,1.000000000,1.000000000,1.000000000,0.994560918,0.980740704,0.904824301,0.928797468,1.000000000,1.000000000,1.000000000,1.000000000,1.000000000,1.000000000,0.885548523,0.691455696,0.573312236,0.736286920,0.869198312,0.721518987,0.896624473,1.000000000,1.000000000,1.000000000,1.000000000,1.000000000,1.000000000,1.000000000,1.000000000,1.000000000,1.000000000,1.000000000,1.000000000,1.000000000,1.000000000,0.943544026,0.799837909,0.474276643,0.282700422,0.246308017,0.482594937,0.608122363,0.626582278,0.508438819,0.472573840,0.443037975,0.388185654,0.122362869,0.370780591,0.708333333,0.708333333,0.708333333,0.639767932,0.515031646,0.795622363,0.943301688,1.000000000,1.000000000,1.000000000,1.000000000,1.000000000,4
0.375000000,0.533227848,0.799578059,1.000000000,1.000000000,1.000000000,1.000000000,1.000000000,1.000000000,1.000000000,1.000000000,1.000000000,1.000000000,1.000000000,1.000000000,1.000000000,1.000000000,1.000000000,1.000000000,1.000000000,0.984177215,0.920886076,0.975738397,1.000000000,1.000000000,1.000000000,0.929984177,0.806039030,0.730485232,0.796940928,0.955168776,1.000000000,1.000000000,0.994725738,0.931434599,0.831751055,0.720991561,0.654535865,0.876054852,0.968354430,1.000000000,1.000000000,1.000000000,1.000000000,1.000000000,1.000000000,1.000000000,0.934277756,0.815705762,0.735232068,0.830168776,0.925105485,0.937763713,0.853375527,0.667721519,0.731012658,0.750000000,0.677215190,0.510548523,0.668776371,0.874472574,0.945147679,0.840717300,0.904008439,0.764767932,0.666666667,0.698312236,0.888185654,0.970464135,0.949367089,0.861286920,0.797995781,0.734704641,0.745253165,0.808544304,0.871835443,0.754746835,0.828586498,0.958333333,0.958333333,4
0.750000000,0.715189873,0.512658228,0.311181435,0.421940928,0.837025316,0.854430380,0.871835443,0.390822785,0.253164557,0.481012658,0.686708861,0.421940928,0.595991561,0.421940928,0.577004219,0.623417722,0.400843882,0.676160338,0.885021097,0.975738397,1.000000000,1.000000000,1.000000000,1.000000000,1.000000000,0.428797468,0.463607595,0.789293249,0.983913502,1.000000000,1.000000000,1.000000000,1.000000000,1.000000000,0.934862869,0.699103376,0.368407173,0.768987342,0.528481013,0.511075949,0.906645570,1.000000000,1.000000000,1.000000000,1.000000000,1.000000000,0.955696203,0.774261603,0.286919831,0.668248945,0.487869198,0.531645570,0.833333333,0.847573840,0.952004219,0.974683544,0.992088608,1.000000000,0.963607595,0.848628692,0.674578059,0.267932489,0.562236287,0.889240506,1.000000000,1.000000000,1.000000000,1.000000000,0.981507120,0.904964399,0.767405063,0.599683544,0.460443038,0.321202532,0.565928270,0.698048523,0.680643460,0.666666667,0.666666667,2
0.500000000,1.000000000,1.000000000,1.000000000,1.000000000,1.000000000,0.886075949,0.477848101,0.581223629,0.887130802,0.670886076,0.454641350,0.371308017,0.457805907,0.721518987,0.797995781,0.581751055,0.742088608,0.931962025,0.913238397,0.848364979,0.800105485,0.478375527,0.598628692,0.662974684,0.627109705,0.645569620,0.671940928,0.864451477,0.691455696,0.472046414,0.078586498,0.223101266,0.219936709,0.584915612,0.613396624,0.326476793,0.407700422,0.314873418,0.452004219,0.560126582,0.430379747,0.622890295,0.686181435,0.401371308,0.468881857,0.635021097,0.372362869,0.223101266,0.136603376,0.349683544,0.023734177,0.649789030,0.207278481,0.137658228,0.386075949,0.473628692,0.332805907,0.541666667,0.501582278,0.328586498,0.208333333,0.311708861,0.369198312,0.274261603,0.416666667,0.268987342,0.261075949,0.593354430,0.284810127,0.191983122,0.378691983,0.600210970,0.795358650,0.191983122,0.324367089,0.559599156,0.775843882,0.270569620,0.375000000,2
0.750000000,0.984177215,1.000000000,1.000000000,1.000000000,1.000000000,1.000000000,0.976793249,0.937763713,0.952531646,0.984704641,0.933016878,0.880010549,0.899525316,0.864451477,0.464662447,0.581751055,0.737341772,0.911392405,0.763053797,0.558148734,0.527953586,0.313818565,0.280063291,0.274789030,0.410337553,0.698312236,0.561708861,0.420358650,0.264240506,0.150316456,0.398734177,0.984177215,0.848101266,0.939345992,0.991033755,0.819620253,0.585443038,0.400843882,0.399789030,0.477848101,0.651898734,0.875000000,0.892405063,0.950949367,0.905063291,0.352848101,0.137658228,0.606012658,0.737341772,0.297468354,0.723101266,0.934071730,0.850738397,0.912974684,0.945938819,0.848364979,0.775316456,0.599156118,0.446729958,0.887658228,0.946202532,0.971518987,0.620780591,0.308544304,0.587025316,0.522151899,0.658227848,0.708333333,0.708333333,0.399789030,0.356540084,0.633966245,0.829113924,0.786919831,0.406118143,0.414556962,0.596518987,0.694092827,0.791666667,16
0.416666667,0.416666667,0.608122363,0.816983122,0.492088608,0.507383966,0.667721519,0.904008439,0.748945148,0.571729958,0.442510549,0.649261603,0.708333333,0.663502110,0.515822785,0.407700422,0.304324895,0.235759494,0.619725738,0.867088608,1.000000000,1.000000000,1.000000000,1.000000000,1.000000000,1.000000000,1.000000000,1.000000000,1.000000000,1.000000000,1.000000000,1.000000000,1.000000000,1.000000000,1.000000000,1.000000000,1.000000000,1.000000000,1.000000000,1.000000000,1.000000000,1.000000000,1.000000000,0.939873418,0.898734177,0.987341772,1.000000000,1.000000000,0.997890295,0.938818565,0.953586498,1.000000000,1.000000000,1.000000000,1.000000000,1.000000000,1.000000000,1.000000000,1.000000000,1.000000000,0.833860759,0.612341772,0.390822785,0.649261603,0.868143460,1.000000000,1.000000000,1.000000000,0.973101266,0.878955696,0.639438291,0.541139241,0.636867089,0.858386076,0.965981013,1.000000000,1.000000000,1.000000000,1.000000000,1.000000000,10
0.708333333,0.418248945,0.815400844,0.742616034,0.487869198,0.498417722,0.428797468,0.468354430,0.534282700,0.331223629,0.695675105,0.322257384,0.654535865,0.425105485,0.402953586,0.291666667,0.291666667,0.383966245,0.419303797,0.268987342,0.454113924,0.406645570,0.424050633,0.497890295,0.224683544,0.601265823,0.327531646,0.463607595,0.570675105,0.484704641,0.590189873,0.247890295,0.598628692,0.792721519,0.867879747,0.389767932,0.468881857,0.456223629,0.276898734,0.462025316,0.478902954,0.266350211,0.377109705,0.364451477,0.481540084,0.842827004,0.903481013,0.853375527,0.382383966,0.362341772,0.218881857,0.511075949,0.581751055,0.372362869,0.924050633,0.762658228,0.455168776,0.276371308,0.271097046,0.606012658,0.792985232,0.901898734,0.735759494,0.814873418,0.313818565,0.353902954,0.290084388,0.047468354,0.179852321,0.411392405,0.142405063,0.622362869,0.788502110,0.274261603,0.660337553,0.718354430,0.534282700,0.706223629,0.343354430,0.666666667,14
0.125000000,0.271097046,0.490506329,0.597573840,0.585443038,0.618143460,0.462552743,0.345200422,0.006329114,0.552215190,0.786392405,0.508966245,0.674578059,0.606012658,0.200949367,0.387130802,0.490506329,0.207278481,0.608649789,0.593354430,0.592299578,0.526371308,0.387130802,0.827004219,0.658755274,0.492616034,0.727320675,0.805379747,0.776371308,0.693565401,0.757911392,0.945675105,0.574894515,0.401898734,0.459915612,0.570675105,0.286919831,0.306962025,0.434599156,0.224156118,0.492616034,0.920886076,0.543776371,0.292194093,0.107067511,0.328059072,0.725210970,0.712552743,0.288502110,0.292194093,0.444620253,0.359704641,0.437236287,0.571202532,0.618143460,0.464662447,0.147151899,0.428797468,0.653481013,0.766877637,0.709388186,0.835443038,0.315928270,0.898734177,0.641877637,0.744198312,0.553797468,0.580168776,0.818565401,0.641350211,0.900316456,0.629219409,0.445147679,0.636603376,0.495780591,0.313818565,0.363396624,0.707278481,0.282172996,0.208333333,0
0.458333333,0.640295359,0.822257384,0.849156118,0.874472574,0.870780591,0.671413502,0.301160338,0.373945148,0.805379747,0.783227848,0.775316456,0.851793249,0.872362869,0.810654008,0.881329114,0.935917722,0.990506329,0.939873418,0.916666667,0.897151899,0.917721519,1.000000000,1.000000000,1.000000000,0.930379747,0.916666667,0.916666667,0.935654008,0.972046414,0.983122363,0.922995781,0.995780591,0.965717300,0.929324895,0.892932489,0.893459916,0.903481013,0.827531646,0.638185654,0.820147679,0.732067511,0.622890295,0.652953586,0.797995781,0.878691983,0.784282700,0.751054852,0.769251055,0.787447257,0.400316456,0.253691983,0.500527426,0.791666667,0.736814346,0.469409283,0.724156118,0.782700422,0.764240506,0.705696203,0.717299578,0.803270042,0.842827004,0.897415612,0.952004219,0.990506329,0.515822785,0.358122363,0.621835443,0.875000000,0.880801688,0.916139241,0.879746835,0.558544304,0.537447257,0.667721519,0.639240506,0.542721519,0.796940928,0.833333333,2
0.583333333,0.441983122,0.358649789,0.605485232,0.743407173,0.549050633,0.411919831,0.765295359,0.791666667,0.791666667,0.631329114,0.451476793,0.433808017,0.427215190,0.780590717,0.953586498,1.000000000,1.000000000,0.933544304,0.721518987,0.509493671,0.770042194,0.943037975,0.847046414,0.568697257,0.443037975,0.851793249,0.463080169,0.634493671,0.844672996,0.812895570,0.574367089,0.438818565,0.827531646,0.450421941,0.631329114,0.550632911,0.501582278,0.770042194,0.980748945,0.998417722,0.810983650,0.519382911,0.589662447,0.859704641,0.930379747,0.996308017,0.748945148,0.501582278,0.648734177,0.867088608,0.821729958,0.588080169,0.976793249,0.800632911,0.871044304,0.922072785,0.895569620,0.882911392,0.918248945,0.953586498,0.927742616,0.940928270,0.976265823,0.953586498,0.796413502,0.549050633,0.610232068,0.680907173,0.838080169,0.851265823,0.603902954,0.404008439,0.792721519,0.928270042,0.882383966,0.842827004,0.860495781,0.837025316,0.625000000,12
0.125000000,0.410864979,0.572784810,0.531118143,0.257383966,0.512658228,0.226265823,0.463080169,0.612869198,0.677215190,0.758966245,0.352848101,0.188818565,0.447257384,0.343354430,0.312763713,0.350738397,0.255274262,0.495780591,0.362341772,0.375527426,0.378164557,0.744198312,0.431962025,0.738396624,0.380274262,0.176160338,0.621308017,0.722573840,0.389767932,0.709388186,0.283755274,0.287974684,0.669831224,0.501054852,0.274525316,0.158755274,0.381329114,0.308016878,0.208333333,0.392932489,0.464662447,0.531118143,0.640295359,0.772679325,0.083860759,0.268459916,0.244725738,0.754746835,0.492088608,0.695147679,0.416666667,0.664029536,0.317510549,0.276898734,0.647151899,0.698312236,0.461497890,0.142932489,0.226793249,0.138185654,0.832278481,0.250527426,0.556434599,0.680379747,0.378691983,0.474156118,0.902689873,0.788897679,0.315664557,0.880801688,0.311708861,0.606012658,0.649789030,0.582278481,0.250000000,0.289556962,0.306962025,0.153481013,0.708333333,0
0.791666667,0.791666667,0.791666667,0.513185654,0.380274262,0.757383966,0.955168776,0.999472574,0.971914557,0.859177215,0.787974684,0.617088608,0.416139241,0.678797468,0.868670886,0.678797468,0.327531646,0.120780591,0.168248945,0.372362869,0.285864979,0.404008439,0.095200422,0.308808017,0.543776371,0.808544304,0.606540084,0.828059072,0.621308017,0.015822785,0.460970464,0.732594937,0.685126582,0.408755274,0.191455696,0.525316456,0.123945148,0.168248945,0.814345992,0.541139241,0.386867089,0.410601266,0.133966245,0.618143460,0.625000000,0.514240506,0.225210970,0.181962025,0.210443038,0.352848101,0.174578059,0.467299578,0.756329114,0.344936709,0.521624473,0.596518987,0.724683544,0.398734177,0.904008439,0.651371308,0.483649789,0.689345992,0.568037975,0.615506329,0.359177215,0.462552743,0.549578059,0.555907173,0.460970464,0.644514768,0.698312236,0.297468354,0.143196203,0.110232068,0.483649789,0.320147679,0.308544304,0.259493671,0.202531646,0.291666667,8
0.729166667,0.642536920,0.555907173,0.702531646,0.866033755,0.529008439,0.450421941,0.407700422,0.241033755,0.449894515,0.731540084,0.569092827,0.734177215,1.000000000,1.000000000,1.000000000,1.000000000,1.000000000,0.978573312,0.892174314,0.452531646,0.176687764,0.457278481,0.561708861,0.411919831,0.560126582,0.348364979,0.136603376,0.780063291,0.875000000,0.634493671,0.824103376,0.842695148,0.621308017,0.343354430,0.238924051,0.558016878,0.762130802,0.498681435,0.819224684,0.982858650,0.828059072,0.659612342,0.441455696,0.676687764,0.542194093,0.375527426,0.578059072,0.599683544,0.319620253,0.542194093,0.676687764,0.468881857,0.661392405,0.479430380,0.544040084,0.640295359,0.890295359,0.907041139,0.751845992,0.537447257,0.558544304,0.838607595,0.723101266,0.677215190,0.997362869,0.958860759,0.692510549,0.892932489,0.866297468,0.779667722,0.800632911,0.822257384,0.803006329,0.870780591,0.810126582,0.337025316,0.233649789,0.365506329,0.250000000,0
0.625000000,0.500527426,0.602320675,0.679852321,0.462025316,0.519514768,0.401371308,0.354430380,0.696729958,0.813554852,0.922468354,1.000000000,1.000000000,1.000000000,1.000000000,1.000000000,1.000000000,0.564873418,0.541139241,0.797468354,0.984177215,1.000000000,1.000000000,1.000000000,1.000000000,0.868094014,0.607034546,0.388185654,0.637130802,0.447257384,0.468354430,0.698312236,0.853902954,0.955696203,1.000000000,1.000000000,1.000000000,1.000000000,1.000000000,1.000000000,1.000000000,1.000000000,1.000000000,1.000000000,1.000000000,0.949367089,0.946202532,1.000000000,1.000000000,0.925632911,0.917721519,1.000000000,1.000000000,1.000000000,1.000000000,1.000000000,1.000000000,1.000000000,1.000000000,1.000000000,1.000000000,1.000000000,0.987341772,0.960443038,0.991561181,1.000000000,0.987869198,0.959915612,0.991033755,0.950158228,0.874340717,0.793248945,0.839926160,0.886603376,0.927742616,0.958860759,0.989978903,1.000000000,1.000000000,1.000000000,6
0.875000000,0.993670886,0.138713080,0.395042194,0.558016878,0.676687764,0.244198312,0.472046414,0.485232068,0.492088608,0.810126582,0.704641350,0.431434599,0.611814346,0.690928270,0.800105485,0.950421941,0.910864979,0.871308017,0.833333333,0.833333333,0.989451477,0.852320675,0.868143460,0.678797468,0.441455696,0.431962025,0.774789030,0.982594937,0.977848101,0.958333333,0.958333333,0.958333333,0.951476793,0.931698312,0.878691983,0.750000000,0.781645570,0.990506329,0.875000000,0.875000000,0.875000000,0.838607595,0.833333333,0.929852321,0.913238397,0.853902954,0.497362869,0.362869198,0.546413502,0.783755274,0.847046414,0.566455696,0.329113924,0.433544304,0.276898734,0.436708861,0.735759494,0.619725738,0.544303797,0.742088608,0.939873418,0.814873418,0.386603376,0.354957806,0.286392405,0.579113924,0.800632911,0.740506329,0.645569620,0.643987342,0.717299578,0.643987342,0.387658228,0.564345992,0.924050633,0.669303797,0.908227848,0.795358650,0.083333333,12
0.291666667,0.291666667,0.705168776,0.725210970,0.476793249,0.647679325,0.343881857,0.683016878,0.554324895,0.438818565,0.940928270,0.468354430,0.326476793,0.380274262,0.614978903,0.840717300,0.435654008,0.770569620,0.947784810,0.881460970,0.624077004,0.330696203,0.161919831,0.415084388,0.758702532,0.897415612,0.635812236,0.374208861,0.646624473,0.863660338,0.953322785,0.990770042,0.999208861,1.000000000,1.000000000,1.000000000,1.000000000,1.000000000,1.000000000,1.000000000,1.000000000,1.000000000,1.000000000,1.000000000,0.973101266,0.977320675,1.000000000,0.995648734,0.949235232,0.808544304,0.560126582,0.500263713,0.790611814,0.917194093,0.829839135,0.724353903,0.636075949,0.502109705,0.130801688,0.191455696,0.385548523,0.456487342,0.372099156,0.316983122,0.857067511,0.985759494,0.853639241,0.554061181,0.278481013,0.919831224,0.586497890,0.568037975,0.804324895,1.000000000,1.000000000,1.000000000,1.000000000,0.984177215,0.958333333,0.958333333,4
0.500000000,0.469409283,0.456223629,0.481540084,0.254219409,0.539029536,0.568037975,0.354430380,0.495780591,0.414556962,0.514240506,0.580168776,0.422995781,0.510548523,0.469409283,0.417194093,0.697784810,0.601265823,0.531645570,0.595464135,0.318037975,0.642405063,0.523734177,0.370253165,0.602848101,0.429324895,0.382383966,0.591244726,0.393459916,0.469409283,0.522679325,0.319620253,0.599683544,0.478375527,0.438818565,0.650316456,0.329641350,0.487341772,0.508438819,0.375527426,0.582805907,0.370780591,0.368143460,0.550105485,0.368143460,0.468881857,0.533755274,0.329641350,0.632383966,0.377109705,0.433016878,0.675105485,0.437236287,0.454641350,0.584915612,0.400316456,0.607594937,0.494725738,0.423523207,0.603902954,0.219936709,0.514240506,0.578059072,0.429324895,0.657700422,0.629219409,0.508438819,0.575421941,0.431962025,0.596518987,0.495253165,0.379219409,0.641877637,0.536919831,0.483122363,0.581223629,0.433544304,0.544303797,0.457805907,0.333333333,10
0.083333333,0.688818565,0.789029536,0.678270042,0.828059072,0.494198312,0.621835443,0.187763713,0.547995781,0.756856540,0.533755274,0.253164557,0.461497890,0.614451477,0.655590717,0.873945148,0.783227848,0.523734177,0.245253165,0.377109705,0.445675105,0.677215190,0.439873418,0.309071730,0.705168776,0.652953586,0.358122363,0.619198312,0.250000000,0.306962025,0.342299578,0.680379747,0.391350211,0.299578059,0.415084388,0.297468354,0.485759494,0.283227848,0.331751055,0.349156118,0.598628692,0.559071730,0.646624473,0.359440928,0.823839662,0.266350211,0.210970464,0.353902954,0.603375527,0.351265823,0.362869198,0.671413502,0.255274262,0.638185654,0.669303797,0.489978903,0.573312236,0.494725738,0.366561181,0.715717300,0.357067511,0.347573840,0.527426160,0.310654008,0.615506329,0.477848101,0.661392405,0.103902954,0.553270042,0.525843882,0.430907173,0.657172996,0.316455696,0.481540084,0.630801688,0.255801688,0.503164557,0.414556962,0.614451477,0.333333333,12
0.041666667,0.245780591,0.304852321,0.400843882,0.643987342,0.205696203,0.198312236,0.041666667,0.291139241,0.253164557,0.322257384,0.292194093,0.285337553,0.351793249,0.341244726,0.369725738,0.161919831,0.364451477,0.045886076,0.166666667,0.561181435,0.375000000,0.281645570,0.210443038,0.489978903,0.291666667,0.486286920,0.265822785,0.099156118,0.353375527,0.175105485,0.377637131,0.732594937,0.458333333,0.257911392,0.375000000,0.770569620,0.453586498,0.311181435,0.393459916,0.273206751,0.424578059,0.193565401,0.212552743,0.353375527,0.182489451,0.290084388,0.083333333,0.097046414,0.250000000,0.256329114,0.713080169,0.245253165,0.345464135,0.506329114,0.517932489,0.670886076,0.738924051,0.409282700,0.272151899,0.666666667,0.455168776,0.196729958,0.155590717,0.213607595,0.574367089,0.560126582,0.607594937,0.395569620,0.321202532,0.459915612,0.545358650,0.425105485,0.628955696,0.117879747,0.829641350,0.539029536,0.278481013,0.441983122,0.291666667,10
0.166666667,0.715189873,0.940928270,1.000000000,1.000000000,1.000000000,1.000000000,0.879351266,0.569719146,0.543776371,0.782172996,0.747890295,0.713607595,0.447257384,0.463080169,0.683016878,0.827004219,0.587025316,0.347046414,0.634493671,0.804852321,0.753428270,0.691455696,0.554324895,0.354957806,0.647679325,0.753164557,0.580696203,0.851265823,0.337025316,0.677215190,0.853902954,0.819620253,0.703059072,0.223101266,0.640295359,0.853375527,0.750527426,0.441983122,0.229430380,0.812236287,0.966772152,1.000000000,0.922863924,0.736748418,0.506329114,0.712025316,0.903744726,0.989451477,0.896162975,0.613132911,0.266020570,0.707805907,0.934599156,1.000000000,1.000000000,1.000000000,1.000000000,0.969936709,0.844936709,0.795886076,0.898734177,0.998417722,0.895569620,0.957278481,1.000000000,1.000000000,0.969013713,0.767602848,0.493802743,0.466244726,0.708860759,0.899789030,0.556962025,0.214135021,0.550632911,0.575421941,0.369725738,0.282172996,0.625000000,18
0.500000000,0.408227848,0.330168776,0.296413502,0.731012658,0.004219409,0.030063291,0.041666667,0.734704641,0.375527426,0.251054852,0.294303797,0.434599156,0.427215190,0.454113924,0.375000000,0.693037975,0.083333333,0.138185654,0.321202532,0.239978903,0.485759494,1.000000000,1.000000000,0.951740506,0.741561181,0.167721519,0.457805907,0.438818565,0.660337553,0.848101266,0.522151899,0.453059072,0.366033755,0.174050633,0.312763713,0.513185654,0.541666667,0.629746835,0.616033755,0.331751055,0.279008439,0.579641350,0.646097046,0.270569620,0.409282700,0.354430380,0.527426160,0.276371308,0.169831224,0.421940928,0.514240506,0.334915612,0.209388186,0.536392405,0.312763713,0.764240506,0.372890295,0.601793249,0.837289030,0.863132911,0.902953586,0.840717300,0.449367089,0.248417722,0.190400844,0.483649789,0.656118143,0.412447257,0.733122363,0.262658228,0.715189873,0.370780591,0.564873418,0.683016878,0.894514768,0.298523207,0.467827004,0.328586498,0.333333333,2
0.541666667,0.789029536,0.586497890,0.689345992,0.244198312,0.910073840,0.804588608,0.682489451,0.446202532,0.670358650,0.380274262,0.422468354,0.502637131,0.708860759,0.551687764,0.752109705,0.608649789,0.771097046,0.983386076,0.904535865,0.738396624,0.602320675,0.872362869,0.517405063,0.534282700,0.761075949,0.847573840,0.763185654,0.604957806,0.523734177,0.565928270,0.537710970,0.790875527,0.632647679,0.344409283,0.304852321,0.697257384,0.716244726,0.503164557,0.581223629,0.728902954,0.578586498,0.679852321,0.693565401,0.425632911,0.546940928,0.708333333,0.534810127,0.315400844,0.301687764,0.465189873,0.810654008,0.684071730,0.583597046,0.646888186,0.521624473,0.753691983,0.243670886,0.642405063,0.470464135,0.744725738,0.875000000,0.547995781,0.558016878,0.515822785,0.500000000,0.674050633,0.708333333,0.277953586,0.463080169,0.389240506,0.375000000,0.412974684,0.801687764,0.755274262,0.393987342,0.896097046,0.794831224,0.832805907,0.833333333,10
0.416666667,0.289029536,0.026371308,0.714135021,0.400843882,0.401371308,0.579113924,0.435654008,0.780063291,0.859704641,0.548523207,0.338607595,0.575949367,0.861286920,0.554852321,0.305379747,0.641877637,0.729430380,0.232067511,0.308016878,0.294303797,0.375000000,0.345991561,0.378691983,0.281645570,0.173523207,0.360232068,0.262130802,0.429852321,0.205168776,0.612341772,0.367088608,0.254219409,0.401898734,0.782700422,0.267932489,0.268459916,0.208860759,0.308016878,0.177742616,0.252637131,0.740506329,0.250000000,0.070675105,0.471518987,0.249472574,0.579113924,0.333860759,0.248417722,0.285337553,0.215189873,0.304852321,0.164029536,0.291666667,0.291666667,0.484704641,0.299050633,0.314873418,0.297468354,0.460970464,0.549578059,0.251054852,0.222573840,0.545358650,0.327004219,0.176160338,0.618670886,0.254219409,0.066983122,0.179852321,0.166666667,0.384493671,0.229430380,0.162447257,0.236814346,0.109704641,0.167721519,0.096518987,0.250000000,0.250000000,14
0.250000000,0.527953586,0.373417722,0.166139241,0.683016878,0.494198312,0.274789030,0.506856540,0.516350211,0.248945148,0.247890295,0.356012658,0.272679325,0.376054852,0.380274262,0.716772152,0.349683544,0.358122363,0.419831224,0.076476793,0.239978903,0.349683544,0.294831224,0.021097046,0.310654008,0.573839662,0.398206751,0.089662447,0.360759494,0.329113924,0.219936709,0.618670886,0.420886076,0.276898734,0.450421941,0.591244726,0.342299578,0.209388186,0.437236287,0.609704641,0.256856540,0.301160338,0.665611814,0.475738397,0.269514768,0.495780591,0.723101266,0.452531646,0.263713080,0.524789030,0.581223629,0.297995781,0.701476793,0.392932489,0.340717300,0.818565401,0.297468354,0.374472574,0.158227848,0.162447257,0.506856540,0.280590717,0.260021097,0.527426160,0.404535865,0.308016878,0.272151899,0.369198312,0.356012658,0.104957806,0.179324895,0.616033755,0.175105485,0.070147679,0.266877637,0.201476793,0.439345992,0.373417722,0.549578059,0.291666667,8
0.333333333,0.549578059,0.317510549,0.522151899,0.279535865,0.722573840,0.956751055,0.910337553,0.762921941,0.350474684,0.435654008,0.313291139,0.534282700,0.218881857,0.617616034,0.811181435,0.938818565,0.867088608,0.753164557,1.000000000,0.972705696,0.854034810,0.455696203,0.348101266,0.295886076,0.556962025,0.982594937,0.909810127,0.849683544,0.897679325,0.994725738,0.329641350,0.677742616,0.439345992,0.430379747,0.350210970,0.519514768,0.719409283,0.696202532,0.343881857,0.222573840,0.301160338,0.830696203,0.904008439,0.780063291,0.571202532,0.409810127,0.319092827,0.433016878,0.101793249,0.337025316,0.306434599,0.388713080,0.393459916,0.195147679,0.300105485,0.574894515,1.000000000,0.795886076,0.241033755,0.556434599,0.297995781,0.492088608,0.686181435,0.437236287,0.328059072,0.201476793,0.245780591,0.075421941,0.233649789,0.691455696,0.763185654,0.643987342,0.004746835,0.352848101,0.292721519,0.290611814,0.292194093,0.089662447,0.166666667,0
0.958333333,0.827531646,0.696729958,0.477320675,0.275052743,0.651107595,0.561972574,0.422995781,0.402953586,0.603111814,0.848364979,0.757383966,0.585706751,0.416139241,0.252637131,0.539556962,0.833860759,1.000000000,1.000000000,1.000000000,0.902096519,0.746637658,0.569620253,0.416666667,0.416666667,0.416666667,0.568565401,0.799578059,0.832278481,0.928270042,0.981012658,1.000000000,0.995253165,0.962552743,0.986814346,1.000000000,1.000000000,0.987341772,0.725738397,0.438818565,0.471518987,0.661392405,0.268987342,0.638976793,0.887130802,0.992879747,1.000000000,1.000000000,1.000000000,1.000000000,0.996163799,0.980233881,0.861950323,0.932489451,1.000000000,0.982858650,0.901107595,0.758175105,0.665084388,0.656645570,0.738396624,0.820147679,0.874472574,0.923523207,0.929852321,0.834915612,0.933016878,0.861286920,0.868143460,0.974683544,0.843881857,0.803270042,0.833860759,0.856803797,0.807753165,0.758702532,0.830696203,0.919831224,0.979166667,0.979166667,10
0.666666667,0.868934599,0.963212025,0.992088608,0.999868143,1.000000000,1.000000000,1.000000000,1.000000000,0.926485858,0.750684006,0.601265823,0.663502110,0.430379747,0.599156118,0.857594937,0.639767932,0.421940928,0.351793249,0.319620253,0.101793249,0.225738397,0.470991561,0.760021097,0.977848101,1.000000000,1.000000000,1.000000000,1.000000000,0.979430380,0.913897679,0.858649789,0.983122363,1.000000000,1.000000000,1.000000000,1.000000000,0.965387658,0.855320411,0.734704641,0.890295359,0.968354430,1.000000000,1.000000000,1.000000000,1.000000000,1.000000000,1.000000000,1.000000000,1.000000000,1.000000000,1.000000000,1.000000000,0.927215190,0.868143460,0.852584388,0.837025316,0.892668776,0.947389241,0.970727848,0.994066456,1.000000000,0.886075949,0.632383966,0.741297468,0.850210970,0.940928270,0.996044304,0.918248945,0.840453586,0.838080169,0.958860759,0.974419831,0.989978903,0.983386076,0.936708861,0.890031646,0.938291139,0.978902954,0.916666667,14
1.000000000,1.000000000,0.893987342,0.907172996,0.974683544,0.948312236,0.871308017,0.882120253,0.933412447,0.923786920,0.911656118,0.892405063,0.838080169,0.453059072,0.068037975,0.651371308,0.913502110,0.840189873,0.897151899,0.587025316,0.351793249,0.652953586,0.753164557,0.323839662,0.593354430,0.824894515,0.753164557,0.868670886,0.875000000,0.875000000,0.965189873,1.000000000,1.000000000,1.000000000,0.982594937,0.830168776,0.494725738,0.234177215,0.242616034,0.819092827,0.472573840,0.458333333,0.863396624,0.835970464,0.736814346,0.853902954,0.536392405,0.071202532,0.162447257,0.353902954,0.218354430,0.744725738,0.718881857,0.911392405,0.542194093,0.294303797,0.530063291,0.373417722,0.597046414,0.887394515,0.965189873,1.000000000,0.982561973,0.908161920,0.791666667,0.791666667,0.791666667,0.886603376,0.982858650,0.841772152,0.506856540,0.501582278,0.738396624,0.856012658,0.770042194,0.704641350,0.658755274,0.265295359,0.608649789,0.916666667,4
0.250000000,0.587552743,0.563291139,0.571729958,0.616561181,0.470991561,0.673523207,0.876054852,0.878164557,0.852320675,1.000000000,1.000000000,1.000000000,1.000000000,0.914111946,0.698262790,0.429275448,0.481012658,0.463607595,0.412974684,0.425632911,0.627373418,0.779272152,0.931170886,0.981540084,0.947784810,0.874472574,0.334388186,0.648734177,0.504219409,0.305907173,0.648734177,0.817510549,0.879219409,0.929852321,0.973101266,0.981144515,0.888317511,0.681039030,0.711761603,0.829905063,0.898734177,0.837025316,0.955168776,0.992616034,1.000000000,0.977848101,0.922995781,0.990506329,1.000000000,1.000000000,1.000000000,1.000000000,1.000000000,0.937763713,0.870253165,0.772151899,0.637130802,0.502109705,0.865506329,0.882383966,0.815928270,0.801160338,0.834915612,0.868670886,0.806434599,0.722046414,0.747890295,0.958333333,0.958333333,0.987869198,0.956751055,0.875527426,0.768459916,0.633438819,0.751582278,0.744198312,0.747890295,0.832278481,0.916666667,16
0.812500000,0.591112869,0.369725738,0.719409283,0.398206751,0.544303797,0.500527426,0.525843882,0.873417722,0.910996835,0.626054852,0.415611814,0.789029536,0.339662447,0.801687764,0.331223629,0.805907173,0.485759494,0.318037975,0.379746835,0.396624473,0.577531646,0.655590717,0.366561181,0.862869198,1.000000000,0.992220464,0.708267405,0.306039030,0.582278481,0.847046414,0.647679325,0.440664557,0.344409283,0.465717300,0.786656118,0.954113924,1.000000000,1.000000000,0.990951345,0.770767405,0.419056566,0.645042194,0.585970464,0.431962025,0.544831224,0.824894515,0.988132911,1.000000000,0.984770570,0.905755538,0.691983122,0.327531646,0.982067511,1.000000000,1.000000000,1.000000000,0.972046414,0.512130802,0.532700422,0.888713080,0.843618143,0.554852321,0.440928270,0.734704641,0.169831224,0.824367089,0.339662447,0.361286920,0.185126582,0.637658228,0.950949367,0.645569620,0.542194093,0.570147679,0.322257384,0.526371308,0.390295359,0.683016878,0.375000000,20
0.166666667,0.676687764,0.602848101,0.516086498,0.516877637,0.419831224,0.880801688,0.518987342,0.418776371,0.768987342,1.000000000,1.000000000,0.968222574,0.474485759,0.796940928,0.218881857,0.330696203,0.273734177,0.709388186,0.373417722,0.291139241,0.558544304,0.487869198,0.206223629,0.756856540,0.495780591,0.186708861,0.543248945,0.409810127,0.245253165,0.270569620,0.468618143,0.440928270,0.231540084,0.291666667,0.171413502,0.485759494,0.623945148,0.175632911,0.474683544,0.586497890,0.292721519,0.271624473,0.054324895,0.363924051,0.083333333,0.654535865,0.250000000,0.266877637,0.136075949,0.325949367,0.196202532,0.253691983,0.152426160,0.364451477,0.351265823,0.315928270,0.158227848,0.018459916,0.632911392,0.207805907,0.237341772,0.412447257,0.484177215,0.577531646,0.238396624,0.244725738,0.565928270,0.213607595,0.358122363,0.667194093,0.397151899,0.230485232,0.597573840,0.185654008,0.359704641,0.050105485,0.370253165,0.027426160,0.375000000,0
0.250000000,0.680907173,0.417721519,0.708860759,0.340981013,0.693037975,0.276371308,0.636603376,0.489451477,0.540611814,0.528481013,0.381329114,0.301687764,0.159282700,0.573839662,0.504219409,0.681434599,0.255274262,0.595464135,0.490506329,0.470464135,0.256856540,0.104430380,0.470991561,0.561708861,0.482594937,0.371835443,0.698839662,0.392405063,0.709388186,0.524261603,0.543248945,0.612341772,0.284282700,0.774789030,0.268459916,0.580168776,0.236286920,0.230485232,0.739978903,0.142405063,0.672468354,0.329113924,0.476793249,0.234704641,0.937236287,0.862869198,0.445938819,0.419303797,0.496835443,0.276107595,0.588871308,0.760548523,0.580696203,0.433544304,0.262130802,0.818037975,0.484968354,0.352320675,0.586497890,0.529008439,0.261603376,0.783755274,0.235232068,0.426687764,0.254746835,0.113924051,0.291139241,0.504219409,0.659282700,0.866033755,0.452004219,0.524789030,0.351793249,0.117616034,0.538502110,0.417721519,0.427215190,0.455696203,0.875000000,10
0.000000000,0.166139241,0.620253165,0.250000000,0.534282700,0.161392405,0.535337553,0.238924051,0.414556962,0.258966245,0.419303797,0.292194093,0.445675105,0.534282700,0.276898734,0.298523207,0.299578059,0.379746835,0.383438819,0.305907173,0.244725738,0.287447257,0.387658228,0.396624473,0.436708861,0.385021097,0.632383966,0.262658228,0.291666667,0.149261603,0.091244726,0.386075949,0.074894515,0.248417722,0.291666667,0.291666667,0.162974684,0.475210970,0.209915612,0.487869198,0.228902954,0.356540084,0.311181435,0.603902954,0.886867089,0.258570675,0.656645570,0.590189873,0.603375527,0.424578059,0.245780591,0.313818565,0.290611814,0.388713080,0.608649789,0.310654008,0.358649789,0.421413502,0.375000000,0.375000000,0.212552743,0.415611814,0.378164557,0.424578059,0.410864979,0.366561181,0.770569620,0.470991561,0.327004219,0.481540084,0.217827004,0.401898734,0.128691983,0.444092827,0.275843882,0.501054852,0.294831224,0.414029536,0.374472574,0.416666667,10
0.375000000,0.868670886,0.985232068,0.900580169,0.683016878,0.583333333,0.407700422,0.176687764,0.234177215,0.571729958,0.843486287,0.758043249,0.672600211,0.454641350,0.321729958,0.655063291,0.796940928,0.739978903,0.607067511,0.563818565,0.734704641,0.559071730,0.664556962,0.626582278,0.897943038,0.880274262,0.813818565,0.614451477,0.629746835,0.660337553,0.498945148,0.332278481,0.151898734,0.515822785,0.705696203,0.483649789,0.728375527,0.551160338,0.722046414,0.670886076,0.689873418,0.878428270,0.783491561,0.668776371,0.525316456,0.745780591,0.441983122,0.625527426,0.542194093,0.417721519,0.612341772,0.711497890,0.608649789,0.621308017,0.663502110,0.505274262,0.543248945,0.581223629,0.583333333,0.744198312,0.649261603,0.756856540,0.938291139,0.908623418,0.688686709,0.570147679,0.772679325,0.658755274,0.544831224,0.818565401,0.945543249,0.876450422,0.757779536,0.575421941,0.679852321,0.943565401,0.905590717,0.897151899,1.000000000,1.000000000,10
0.625000000,0.573839662,0.532172996,0.506592827,0.500000000,0.405063291,0.210970464,0.247890295,0.416666667,0.685126582,0.284810127,0.607067511,0.466244726,0.493670886,0.865506329,0.430907173,0.517405063,0.567510549,0.437763713,0.570147679,0.504746835,0.672468354,0.742088608,0.165084388,0.252637131,0.324367089,0.182489451,0.037974684,0.344936709,0.297468354,0.445147679,0.325421941,0.184071730,0.297995781,0.333860759,0.291666667,0.483649789,0.601265823,0.295886076,0.309599156,0.669303797,0.198312236,0.381329114,0.258438819,0.365506329,0.189873418,0.389240506,0.265822785,0.101793249,0.227848101,0.570147679,0.291666667,0.609704641,0.837025316,0.387658228,0.305907173,0.493143460,0.912447257,1.000000000,1.000000000,0.804324895,0.446202532,0.188291139,0.506856540,0.218881857,0.841772152,0.990506329,0.661392405,0.498945148,0.703586498,0.314873418,0.193565401,0.209388186,0.122362869,0.537974684,0.943037975,0.876384494,0.391086498,0.465717300,0.291666667,4
0.166666667,0.455168776,0.436181435,0.459388186,0.408227848,0.604430380,0.680907173,0.199367089,0.097046414,0.715189873,0.448312236,0.191983122,0.507911392,0.485232068,0.375527426,0.619198312,0.564873418,0.402426160,0.780063291,0.558544304,0.318037975,0.729957806,0.574367089,0.372890295,0.773734177,0.601793249,0.422468354,0.658755274,0.232067511,0.287974684,0.521097046,0.360232068,0.715717300,0.389240506,0.672468354,0.384493671,0.414556962,0.522679325,0.704113924,0.484704641,0.372890295,0.290611814,0.223101266,0.569092827,0.230485232,0.585970464,0.670886076,0.237341772,0.497890295,0.716772152,0.135021097,0.810126582,0.453059072,0.720464135,0.261603376,0.175632911,0.188818565,0.342827004,0.460443038,0.387658228,0.600738397,0.651371308,0.281645570,0.305907173,0.062763713,0.386603376,0.380274262,0.246308017,0.449894515,0.534282700,0.169303797,0.197257384,0.546413502,0.356540084,0.621835443,0.261075949,0.413502110,0.397151899,0.213607595,0.750000000,22
0.791666667,0.378691983,0.187763713,0.527426160,0.462025316,0.250527426,0.609177215,0.334915612,0.018459916,0.284282700,0.081223629,0.520042194,0.363924051,0.416666667,0.391877637,0.640822785,0.510021097,0.029008439,0.697784810,0.561708861,0.747362869,0.302215190,0.230485232,0.307489451,0.230485232,0.420358650,0.618670886,0.419831224,0.466244726,0.436708861,0.413502110,0.760548523,0.324894515,0.601265823,0.955432489,0.999736287,0.890888713,0.726265823,0.681962025,0.569092827,0.870780591,0.524789030,0.062763713,0.898734177,0.537447257,0.192510549,0.243670886,0.735232068,0.688818565,0.593881857,0.498154008,0.428533755,0.763185654,1.000000000,1.000000000,1.000000000,1.000000000,1.000000000,0.696202532,0.710443038,0.965717300,0.406645570,0.046940928,0.125000000,0.379746835,0.746835443,0.375000000,0.440928270,0.556962025,0.655063291,0.341772152,0.180379747,0.792194093,0.892405063,0.696202532,0.500263713,0.244989451,0.713607595,0.690400844,0.500000000,6
1.000000000,1.000000000,1.000000000,1.000000000,1.000000000,1.000000000,1.000000000,1.000000000,1.000000000,1.000000000,1.000000000,1.000000000,1.000000000,1.000000000,1.000000000,1.000000000,1.000000000,1.000000000,0.870780591,0.652953586,0.435126582,0.672995781,0.809599156,0.840717300,0.871835443,0.958860759,1.000000000,1.000000000,1.000000000,1.000000000,1.000000000,1.000000000,1.000000000,1.000000000,1.000000000,1.000000000,1.000000000,0.947257384,0.885021097,0.854430380,0.978902954,1.000000000,1.000000000,1.000000000,1.000000000,1.000000000,0.996769515,0.983369594,0.927940401,0.929061181,0.944620253,0.950949367,0.888713080,0.826476793,0.805379747,0.845991561,0.970464135,0.810126582,0.673259494,0.688818565,0.704377637,0.812763713,0.892668776,0.884889241,0.877109705,0.920358650,0.946202532,0.918248945,0.949367089,0.980485232,0.970991561,0.893196203,0.815400844,0.510548523,0.216772152,0.125000000,0.125000000,0.167194093,0.218881857,0.250000000,10
0.666666667,0.983122363,1.000000000,0.832146624,0.461497890,0.748417722,0.962025316,1.000000000,1.000000000,1.000000000,1.000000000,0.741561181,0.482067511,0.519251055,0.341244726,0.318565401,0.638976793,0.500527426,0.404535865,0.686181435,0.132383966,0.827531646,0.395042194,0.646624473,0.904535865,0.683016878,0.327004219,0.511603376,0.693565401,0.703454641,0.487869198,0.285864979,0.349156118,0.320147679,0.266350211,0.340717300,0.157172996,0.542194093,0.841244726,0.928270042,0.582146624,0.236023207,0.681434599,0.715717300,0.322257384,0.493934599,0.869725738,0.508966245,0.350738397,0.609704641,0.847573840,0.975738397,1.000000000,1.000000000,0.988924051,0.770042194,0.193037975,0.693037975,0.279008439,0.710443038,0.868670886,0.723101266,0.923523207,0.688291139,0.371835443,0.557489451,0.598101266,0.499208861,0.551160338,0.540611814,0.382383966,0.409810127,0.686708861,0.659810127,0.272151899,0.583333333,0.640295359,0.882383966,0.223101266,0.500000000,8
0.625000000,0.510548523,0.396097046,0.495780591,0.745253165,0.483649789,0.724156118,0.627637131,0.509493671,0.765822785,0.962025316,1.000000000,1.000000000,1.000000000,1.000000000,1.000000000,0.969903745,0.793545622,0.526371308,0.689873418,0.505274262,0.597046414,0.725210970,0.556434599,0.785337553,0.549050633,0.560654008,0.770042194,0.508438819,0.626582278,0.791402954,0.919831224,0.972310127,0.996835443,0.987539557,0.931764241,0.906645570,1.000000000,1.000000000,1.000000000,1.000000000,1.000000000,1.000000000,1.000000000,1.000000000,1.000000000,1.000000000,1.000000000,0.902162447,0.730748945,0.513185654,0.302215190,0.629219409,0.782700422,0.880801688,0.965189873,0.997890295,1.000000000,1.000000000,1.000000000,0.988462553,0.886273734,0.708662975,0.772679325,0.948839662,0.916139241,0.883438819,0.875000000,0.859704641,0.763713080,0.404008439,0.795886076,0.873945148,0.646097046,0.345464135,0.901371308,1.000000000,1.000000000,1.000000000,1.000000000,12
0.541666667,0.589135021,0.533755274,0.472573840,0.422995781,0.450421941,0.403481013,0.598628692,0.127637131,0.291139241,0.418776371,0.397679325,0.339135021,0.251054852,0.514240506,0.502637131,0.338607595,0.233122363,0.427742616,0.531118143,0.386603376,0.204641350,0.173523207,0.437236287,0.272679325,0.128164557,0.250000000,0.659810127,0.435126582,0.189873418,0.458860759,0.561181435,0.409282700,0.135548523,0.154535865,0.193565401,0.342299578,0.499472574,0.513713080,0.380274262,0.348628692,0.215189873,0.125000000,0.370253165,0.661392405,0.382911392,0.406645570,0.579113924,0.515822785,0.417721519,0.235759494,0.156118143,0.045358650,0.146097046,0.649789030,0.317510549,0.187763713,0.281645570,0.478902954,0.188291139,0.313818565,0.351793249,0.558544304,0.220991561,0.336497890,0.408227848,0.188291139,0.278481013,0.781645570,0.688818565,0.386075949,0.338607595,0.358122363,0.595464135,0.393987342,0.127637131,0.226793249,0.330168776,0.228375527,0.250000000,10
1.000000000,0.843881857,0.542194093,0.533755274,0.697257384,0.493670886,0.581751055,0.627109705,0.490506329,0.578059072,0.638713080,0.337025316,0.300105485,0.458333333,0.425105485,0.185654008,0.536919831,0.483913502,0.425369198,0.881856540,0.724683544,0.457278481,0.450949367,0.318565401,0.347046414,0.506856540,0.576476793,0.694620253,0.534282700,0.825949367,0.986286920,0.858649789,0.712289030,0.062763713,0.335706751,0.706487342,0.491033755,0.210443038,0.496835443,0.683544304,0.566455696,0.643459916,0.765163502,0.521228903,0.279535865,0.190928270,0.773206751,0.578059072,0.382911392,0.786919831,0.589662447,0.316455696,0.633966245,0.468881857,0.534282700,0.773206751,0.909282700,1.000000000,0.955432489,0.811972574,0.708860759,0.892405063,0.992088608,0.894514768,0.796940928,0.717827004,0.639767932,0.783227848,0.920358650,0.984704641,0.982199367,0.942378692,0.935126582,0.926687764,0.848628692,0.812763713,0.875000000,0.838080169,0.599156118,0.833333333,8
0.583333333,0.377637131,0.453059072,0.563291139,0.385548523,0.644514768,0.612341772,0.352320675,0.128691983,0.421940928,0.473628692,0.588080169,0.141350211,0.281645570,0.512130802,0.944620253,0.545094937,0.711497890,0.126054852,0.184071730,0.409810127,0.236286920,0.624472574,0.502109705,0.664556962,0.264240506,0.596518987,0.526371308,0.301160338,0.195675105,0.218881857,0.304324895,0.584388186,0.915611814,0.807291667,0.273470464,0.776898734,0.372890295,0.531645570,0.518459916,0.301160338,0.596518987,0.614451477,0.791666667,0.293248945,0.445147679,0.587552743,0.150843882,0.279008439,0.418248945,0.278481013,0.474156118,0.348628692,0.246835443,0.469409283,0.578586498,0.456223629,0.734177215,0.786392405,0.488924051,0.366033755,0.619725738,0.387658228,0.250000000,0.215717300,0.250527426,0.450949367,0.358649789,0.146097046,0.458860759,0.608122363,0.484704641,0.152426160,0.515822785,0.334915612,0.748945148,0.793248945,0.332805907,0.661919831,0.000000000,8
1.000000000,1.000000000,1.000000000,1.000000000,1.000000000,1.000000000,1.000000000,1.000000000,1.000000000,1.000000000,1.000000000,1.000000000,0.965189873,0.916666667,0.916666667,0.916666667,0.939873418,0.972573840,0.989451477,0.924050633,0.945675105,0.958333333,0.936181435,0.877109705,0.909810127,0.968354430,1.000000000,0.985166139,0.923852848,0.822982595,0.882383966,0.972046414,0.985759494,0.887658228,0.846518987,0.872362869,0.937763713,0.995253165,0.897151899,0.799050633,0.782700422,0.848101266,0.913502110,0.854430380,0.855485232,0.875000000,0.883438819,0.948839662,0.930379747,0.878691983,0.843354430,0.871835443,0.773734177,0.650843882,0.614978903,0.700949367,0.864451477,0.936181435,0.958333333,0.958333333,0.947257384,0.849156118,0.778481013,0.823839662,0.869198312,0.709915612,0.808016878,0.930379747,0.938818565,0.845991561,0.911392405,0.946729958,0.895042194,0.796940928,0.711497890,0.744198312,0.669303797,0.732594937,0.866033755,0.833333333,6
0.916666667,0.571202532,0.477320675,0.734177215,0.534810127,0.422468354,0.338607595,0.375000000,0.688291139,0.865506329,0.450421941,0.470991561,0.499472574,0.375000000,0.375000000,0.429852321,0.318565401,0.493670886,0.360759494,0.449894515,0.526898734,0.430379747,0.433544304,0.354957806,0.518459916,0.440928270,0.746835443,0.488396624,0.378164557,0.402953586,0.820675105,0.094409283,0.456223629,0.291666667,0.343881857,0.389767932,0.419831224,0.777426160,0.452004219,0.276898734,0.703586498,0.742088608,0.218881857,0.436708861,0.376054852,0.291666667,0.329641350,0.197257384,0.456751055,0.394514768,0.319620253,0.316983122,0.481540084,0.226265823,0.154008439,0.189345992,0.289029536,0.158227848,0.264240506,0.716772152,0.366561181,0.329113924,0.209388186,0.584915612,0.390295359,0.561181435,0.179852321,0.458333333,0.641877637,0.734704641,0.194092827,0.193565401,0.541666667,0.541666667,0.763185654,0.375527426,0.283755274,0.237869198,0.315928270,0.166666667,8
0.125000000,0.095991561,0.262658228,0.475738397,0.958333333,0.974156118,1.000000000,1.000000000,0.974683544,0.417194093,0.546413502,0.840717300,0.950949367,0.958333333,0.902953586,0.164556962,0.707014768,0.875395570,0.953850211,0.889240506,0.620253165,0.376054852,0.403481013,0.396097046,0.820675105,0.954113924,0.917721519,0.879219409,0.953059072,0.908227848,0.642932489,0.130274262,0.381329114,0.415611814,0.236286920,0.687763713,0.805379747,0.496835443,0.160601266,0.686181435,0.956751055,0.926160338,0.984177215,0.938818565,0.964398734,0.852320675,0.812236287,0.916402954,0.770701477,0.423259494,0.499472574,0.687236287,0.312763713,0.167721519,0.233649789,0.480485232,0.562236287,0.376582278,0.327531646,0.384493671,0.171413502,0.445675105,0.199367089,0.368670886,0.637658228,0.783755274,0.292194093,0.362869198,0.570675105,0.123417722,0.197257384,0.165084388,0.213607595,0.215717300,0.575949367,0.837025316,0.263713080,0.507383966,0.698839662,0.083333333,18
0.750000000,0.473101266,0.870253165,0.457278481,0.607594937,0.417721519,0.536392405,0.746044304,0.924050633,1.000000000,1.000000000,1.000000000,0.983649789,0.972573840,1.000000000,1.000000000,0.992088608,0.964135021,0.977848101,0.757911392,0.955696203,0.958333333,0.958333333,0.888713080,0.973101266,0.984704641,0.964926160,0.931962025,0.965189873,1.000000000,0.979957806,0.904535865,0.516877637,0.150843882,0.562763713,0.847573840,0.906909283,0.921413502,0.631856540,0.223101266,0.776898734,0.907172996,0.589135021,0.610232068,0.689345992,0.828586498,0.707278481,0.728375527,0.578059072,0.265295359,0.222573840,0.246308017,0.247362869,0.418776371,0.311181435,0.384493671,0.854430380,0.693037975,0.255274262,0.332805907,0.293248945,0.215717300,0.441455696,0.698575949,0.180379747,0.354430380,0.774261603,0.790084388,0.638713080,0.287974684,0.360759494,0.842299578,0.887130802,0.801687764,0.702795359,0.675632911,0.843354430,0.687763713,0.834915612,0.083333333,2
0.375000000,0.717827004,0.344409283,0.287447257,0.445147679,0.492616034,0.599156118,0.309599156,0.135548523,0.601265823,0.497890295,0.700421941,0.618143460,0.566455696,0.304324895,0.272679325,0.744198312,0.413502110,0.464135021,0.658227848,0.359704641,0.190928270,0.477320675,0.468354430,0.639240506,0.510021097,0.523206751,0.675105485,0.375000000,0.294303797,0.338607595,0.623417722,0.696729958,0.459388186,0.571202532,0.404008439,0.258966245,0.315928270,0.333333333,0.467299578,0.381856540,0.408227848,0.284810127,0.333333333,0.185654008,0.572784810,0.316455696,0.561708861,0.710970464,0.381856540,0.291666667,0.321729958,0.785337553,0.367616034,0.184071730,0.388713080,0.439345992,0.715189873,0.291666667,0.209388186,0.289556962,0.257383966,0.364978903,0.733649789,0.456751055,0.475738397,0.240506329,0.357067511,0.217827004,0.319092827,0.375000000,0.179852321,0.482594937,0.359177215,0.291666667,0.313818565,0.295886076,0.296940928,0.752637131,0.375000000,24
