1,2,3,4,5,6,7,8,9,10,11,12,13,14,15,16,17,18,19,20,21,22,23,24,25,26,27,28,29,30,31,32,33,34,35,36,37,38,39,40,41,42,43,44,45,46,47,48,49,50,51,52,53,54,55,56,57,58,59,60,61,62,63,64,65,66,67,68,69,70,71,72,73,74,75,76,77,78,79,80,压力
0.541666667,0.295886076,0.623945148,0.572257384,0.308544304,0.617088608,0.474683544,0.203586498,0.589662447,0.652953586,0.705696203,0.684599156,0.685654008,0.798523207,0.759493671,0.519514768,0.797995781,0.130801688,0.151898734,0.596518987,0.522679325,0.891877637,0.731540084,0.767405063,0.683016878,0.690928270,0.805907173,0.735759494,0.723101266,0.658227848,0.357594937,0.353902954,0.725210970,0.610759494,0.470464135,0.652426160,0.715717300,0.625000000,0.785337553,0.855485232,0.370253165,0.324367089,0.647151899,0.689345992,0.592299578,0.784810127,0.854430380,0.824367089,0.950949367,0.741561181,0.662447257,0.304852321,0.494725738,0.596518987,0.684071730,0.662974684,0.802215190,0.905063291,0.671940928,0.614451477,0.276898734,0.456223629,0.705168776,0.816455696,0.968354430,0.862869198,0.972573840,0.964662447,0.384493671,0.910337553,0.630801688,0.920358650,0.540611814,0.692510549,0.552215190,0.779008439,0.591244726,0.786392405,0.585970464,0.833333333,6
0.416666667,0.823839662,0.660864979,0.654535865,0.289556962,0.540084388,0.398734177,0.368143460,0.468354430,0.808544304,0.303270042,0.674050633,0.595991561,0.516877637,0.611814346,0.490506329,0.260021097,0.273206751,0.303797468,0.333333333,0.446202532,0.852320675,0.644514768,0.642405063,0.930379747,0.455696203,0.405590717,0.394514768,0.444620253,0.858649789,0.460970464,0.814345992,0.633966245,0.559599156,0.338080169,0.420358650,0.428006329,0.302742616,0.293512658,0.368670886,0.749472574,0.337025316,0.376582278,0.470464135,0.876054852,0.185654008,0.399261603,0.498417722,0.458333333,0.381329114,0.499472574,0.222046414,0.272151899,0.597573840,0.044831224,0.367088608,0.662447257,0.650843882,0.449894515,0.331223629,0.368670886,0.318565401,0.361286920,0.385021097,0.896097046,0.394514768,0.733122363,0.297995781,0.401371308,0.255274262,0.230485232,0.301687764,0.662447257,0.467827004,0.785864979,0.378691983,0.521097046,0.538502110,0.392932489,0.791666667,16
0.291666667,0.494725738,0.342299578,0.261075949,0.413502110,0.336497890,0.279535865,0.328059072,0.345464135,0.263713080,0.530590717,0.449367089,0.429852321,0.683016878,0.344936709,0.439345992,0.829641350,0.408227848,0.707278481,0.664556962,0.406645570,0.585970464,0.705696203,0.299578059,0.705168776,0.663502110,0.354957806,0.565928270,0.544303797,0.277426160,0.660864979,0.500527426,0.340717300,0.696729958,0.373417722,0.387658228,0.679324895,0.401898734,0.523206751,0.686708861,0.284282700,0.480485232,0.524789030,0.148734177,0.392932489,0.404008439,0.215717300,0.448839662,0.475210970,0.334388186,0.621308017,0.558544304,0.409810127,0.275316456,0.398734177,0.102320675,0.046413502,0.350738397,0.621835443,0.297468354,0.626582278,0.518459916,0.339135021,0.584388186,0.517932489,0.376582278,0.643459916,0.385548523,0.379219409,0.729430380,0.327004219,0.620253165,0.697257384,0.353375527,0.532700422,0.698839662,0.381329114,0.646097046,0.552742616,0.916666667,20
0.333333333,0.467827004,0.510548523,0.268459916,0.419831224,0.475210970,0.323312236,0.441455696,0.472573840,0.321202532,0.443565401,0.478902954,0.282172996,0.348101266,0.610759494,0.357594937,0.304324895,0.452004219,0.319092827,0.867088608,0.279535865,0.435654008,0.615506329,0.252637131,0.373417722,0.501054852,0.363396624,0.435126582,0.561181435,0.414556962,0.440400844,0.497890295,0.334388186,0.300632911,0.529008439,0.392932489,0.351793249,0.587025316,0.447784810,0.350738397,0.619725738,0.341244726,0.310654008,0.449894515,0.440400844,0.304324895,0.511075949,0.469409283,0.335970464,0.465189873,0.423523207,0.291666667,0.309599156,0.464135021,0.279008439,0.355485232,0.462025316,0.375000000,0.351793249,0.409282700,0.283227848,0.297468354,0.371835443,0.276898734,0.758438819,0.919831224,0.689345992,0.519514768,0.350210970,0.386075949,0.452531646,0.766877637,0.774525316,0.294831224,0.516877637,0.315928270,0.294303797,0.537974684,0.483649789,0.375000000,18
0.666666667,0.474683544,0.467299578,0.419831224,0.828586498,0.646624473,0.465717300,0.694092827,0.269514768,0.529008439,0.385548523,0.440928270,0.504219409,0.335970464,0.464135021,0.879746835,0.468881857,0.536919831,0.327004219,0.405590717,0.347046414,0.492616034,0.459915612,0.499472574,0.362869198,0.009493671,0.273734177,0.384493671,0.787974684,0.461497890,0.380801688,0.765295359,0.289029536,0.465189873,0.478375527,0.359704641,0.323312236,0.813291139,0.628691983,0.568565401,0.270042194,0.480485232,0.237869198,0.516350211,0.314873418,0.486286920,0.417721519,0.322784810,0.367088608,0.255801688,0.488396624,0.309599156,0.448839662,0.375000000,0.568037975,0.366561181,0.399261603,0.351793249,0.861286920,0.517932489,0.428797468,0.236814346,0.498945148,0.252637131,0.531118143,0.325949367,0.520569620,0.297995781,0.448312236,0.440928270,0.299578059,0.438818565,0.768459916,0.252109705,0.392405063,0.386075949,0.211497890,0.415611814,0.361286920,0.500000000,14
0.750000000,0.486286920,0.347046414,0.489451477,0.757911392,0.526898734,0.552742616,0.703586498,0.624472574,0.579113924,0.803797468,0.567510549,0.627637131,0.612869198,0.470991561,0.502637131,0.565928270,0.550105485,0.543248945,0.549578059,0.426687764,0.859704641,0.425105485,0.452004219,0.334915612,0.393459916,0.309599156,0.435126582,0.460970464,0.560654008,0.742088608,0.335443038,0.429852321,0.660864979,0.379746835,0.307489451,0.354957806,0.333333333,0.450949367,0.722046414,0.372362869,0.611814346,0.426160338,0.523206751,0.279535865,0.333860759,0.577531646,0.802215190,0.309599156,0.597573840,0.338080169,0.445675105,0.375000000,0.446729958,0.391350211,0.418776371,0.520042194,0.350210970,0.370253165,0.213080169,0.061181435,0.273206751,0.223101266,0.428797468,0.344409283,0.529008439,0.342299578,0.417194093,0.391877637,0.830696203,0.311708861,0.348101266,0.376582278,0.396624473,0.492616034,0.312236287,0.567510549,0.406118143,0.421940928,0.375000000,26
0.291666667,0.638713080,0.419831224,0.620780591,0.420886076,0.492088608,0.421940928,0.392932489,0.545886076,0.379746835,0.606012658,0.380801688,0.491561181,0.393459916,0.383966245,0.455696203,0.399789030,0.608122363,0.239978903,0.571729958,0.340189873,0.526898734,0.375000000,0.469936709,0.504219409,0.348628692,0.518459916,0.352320675,0.523734177,0.344936709,0.395569620,0.491033755,0.446729958,0.511603376,0.396624473,0.558544304,0.316983122,0.541666667,0.393987342,0.493670886,0.424050633,0.373417722,0.500000000,0.329641350,0.481540084,0.247890295,0.398206751,0.385548523,0.507383966,0.499472574,0.379219409,0.517932489,0.278481013,0.481540084,0.297468354,0.529008439,0.344936709,0.471518987,0.553797468,0.371835443,0.448312236,0.349156118,0.507911392,0.335970464,0.580696203,0.443565401,0.592299578,0.410337553,0.339135021,0.357594937,0.342827004,0.644514768,0.343881857,0.619725738,0.372362869,0.462552743,0.497890295,0.433016878,0.625000000,0.625000000,16
0.541666667,0.707805907,0.458860759,0.504219409,0.522679325,0.508438819,0.385021097,0.448839662,0.622890295,0.475738397,0.550105485,0.556434599,0.621835443,0.595464135,0.464135021,0.641350211,0.544831224,0.641350211,0.546413502,0.582278481,0.524789030,0.473628692,0.612869198,0.438818565,0.779008439,0.485759494,0.588607595,0.569620253,0.575949367,0.695675105,0.559071730,0.654008439,0.431434599,0.671413502,0.588607595,0.719936709,0.787447257,0.745780591,0.936708861,0.453586498,0.848628692,0.553270042,0.813291139,0.721518987,0.762658228,0.293248945,0.509493671,0.464662447,0.923523207,0.525316456,0.597573840,0.693565401,0.656645570,0.145569620,0.626582278,0.349156118,0.917721519,0.500000000,0.485759494,0.516877637,0.533755274,0.650316456,0.496308017,0.336497890,0.566455696,0.340717300,0.319620253,0.549578059,0.662447257,0.477320675,0.691983122,0.462025316,0.638185654,0.526898734,0.737341772,0.561708861,0.314873418,0.373945148,0.603902954,0.500000000,26
0.541666667,0.364978903,0.775316456,0.446202532,0.655063291,0.454113924,0.514240506,0.499472574,0.539556962,0.564873418,0.444620253,0.668776371,0.390295359,0.661392405,0.750000000,0.433544304,0.462025316,0.767405063,0.931302743,0.565796414,0.391350211,0.611814346,0.434599156,0.523206751,0.490506329,0.565400844,0.630274262,0.364451477,0.677742616,0.408755274,0.820147679,0.313818565,0.781118143,0.411919831,0.734704641,0.524261603,0.765822785,0.531645570,0.597046414,0.464662447,0.464662447,0.572257384,0.709388186,0.546413502,0.369198312,0.722046414,0.335970464,0.900843882,0.313818565,0.807489451,0.304324895,0.668248945,0.407700422,0.643987342,0.566455696,0.652953586,0.707805907,0.511603376,0.697257384,0.366033755,0.698312236,0.223628692,0.818037975,0.998417722,0.985759494,0.660601266,0.311708861,0.841772152,0.886075949,0.456751055,0.453586498,0.504219409,0.189873418,0.234177215,0.648734177,0.366561181,0.782172996,0.407172996,0.177215190,0.333333333,12
0.583333333,0.575421941,0.494198312,0.464135021,0.468354430,0.418776371,0.428270042,0.527426160,0.561708861,0.423523207,0.487341772,0.420358650,0.400316456,0.367088608,0.500000000,0.570675105,0.416666667,0.407172996,0.462025316,0.456751055,0.674050633,0.420886076,0.595464135,0.657172996,0.675105485,0.696729958,0.479430380,0.702531646,0.440928270,0.498945148,0.590717300,0.371308017,0.448839662,0.388713080,0.427742616,0.426160338,0.430379747,0.822784810,0.524261603,0.731012658,0.706223629,0.515295359,0.863396624,0.457278481,0.683016878,0.560126582,0.474683544,0.875527426,0.362869198,0.764767932,0.581223629,0.493670886,0.666139241,0.432489451,0.592827004,0.541139241,0.512658228,0.614978903,0.379219409,0.640822785,0.505801688,0.514240506,0.696729958,0.390822785,0.747362869,0.599683544,0.525843882,0.472046414,0.313818565,0.678797468,0.489451477,0.486286920,0.515295359,0.445675105,0.493670886,0.405063291,0.446202532,0.555907173,0.396624473,0.583333333,6
0.958333333,0.455696203,0.220991561,0.193037975,0.378164557,0.256856540,0.584388186,0.484177215,0.312763713,0.480485232,0.634493671,0.567510549,0.210970464,0.532172996,0.286392405,0.308016878,0.494198312,0.590189873,0.441455696,0.338080169,0.575421941,0.343354430,0.279535865,0.375527426,0.602320675,0.318037975,0.643459916,0.893459916,0.629483122,0.323312236,0.241033755,0.481012658,0.936181435,0.498417722,0.361286920,0.383966245,0.524789030,0.354957806,0.484704641,0.426160338,0.381329114,0.458333333,0.648206751,0.714662447,0.727848101,0.554852321,0.541139241,0.552215190,0.705168776,0.568565401,0.520042194,0.343354430,0.562236287,0.899789030,0.566455696,0.677215190,0.641350211,0.703059072,0.798523207,0.630537975,0.550105485,0.446729958,0.648734177,0.641877637,0.514240506,0.848101266,0.992879747,0.643064346,0.195675105,0.060126582,0.415084388,0.681434599,0.552215190,0.762130802,0.448312236,0.629219409,0.686181435,0.284282700,0.526371308,0.291666667,14
0.375000000,0.847573840,0.383966245,0.751054852,0.418248945,0.853375527,0.590717300,0.593881857,0.731012658,0.648206751,0.600738397,0.681434599,0.654535865,0.622890295,0.412974684,0.370780591,0.480221519,0.751054852,0.582805907,0.342035865,0.876318565,0.980485232,1.000000000,0.990143724,0.854364451,0.397679325,0.171413502,0.587552743,0.701476793,0.496308017,0.575949367,0.964135021,0.896624473,0.609704641,0.169303797,0.492088608,0.762130802,0.536919831,0.422995781,0.782172996,0.467827004,0.827004219,0.744725738,0.656645570,0.359704641,0.259493671,0.486286920,0.600738397,0.636075949,0.234704641,0.349156118,0.462025316,0.216772152,0.409810127,0.480485232,0.131329114,0.529008439,0.218881857,0.049578059,0.782172996,0.703586498,0.557489451,0.268459916,0.212025316,0.548259494,0.395042194,0.462552743,0.726265823,0.569620253,0.479430380,0.730485232,0.586497890,0.629219409,0.820675105,0.646624473,0.284282700,0.844409283,0.434071730,0.137658228,0.458333333,26
0.458333333,0.789029536,0.429324895,0.742088608,0.566983122,0.639767932,0.579641350,0.523206751,0.599156118,0.442510549,0.744198312,0.304324895,0.835443038,0.338607595,0.713080169,0.429324895,0.572784810,0.584388186,0.468354430,0.618143460,0.396097046,0.757911392,0.437763713,0.812763713,0.349683544,0.651371308,0.481540084,0.671413502,0.271624473,0.226265823,0.702004219,0.491561181,0.785864979,0.335970464,0.703586498,0.392405063,0.805907173,0.426160338,0.574894515,0.644514768,0.553797468,0.592827004,0.430907173,0.730485232,0.309071730,0.784810127,0.342299578,0.862341772,0.533227848,0.772151899,0.548523207,0.617088608,0.644514768,0.443565401,0.684071730,0.391350211,0.694092827,0.511339662,0.408755274,0.903481013,0.894514768,0.514767932,0.579641350,0.535337553,0.655063291,0.659282700,0.409810127,0.843354430,0.330168776,0.232067511,0.391350211,0.437236287,0.649261603,0.611814346,0.578059072,0.670886076,0.496835443,0.752109705,0.339662447,0.208333333,12
0.666666667,0.822257384,0.936708861,1.000000000,1.000000000,1.000000000,1.000000000,1.000000000,1.000000000,0.969936709,0.977848101,1.000000000,1.000000000,1.000000000,1.000000000,0.983122363,0.920886076,0.945675105,0.939873418,0.916666667,0.916666667,0.916666667,0.925632911,0.941191983,0.956751055,0.916402954,0.869725738,0.853902954,0.947257384,0.944620253,0.929061181,0.929324895,0.991561181,1.000000000,0.983649789,0.952531646,0.921413502,0.890295359,0.922468354,0.989451477,0.927215190,0.942510549,0.973628692,0.997626582,0.982067511,0.966508439,0.943565401,0.916666667,0.916666667,0.916666667,0.930907173,0.950949367,0.888713080,0.923523207,0.972046414,0.996835443,0.965717300,0.958333333,0.964926160,0.980485232,0.996044304,0.930379747,0.900316456,0.960443038,0.991561181,1.000000000,0.975738397,0.915084388,0.883966245,0.941455696,0.988396624,0.957278481,0.926160338,0.959915612,0.977848101,0.916666667,0.916666667,0.906118143,0.890559072,0.875000000,16
0.375000000,0.290084388,0.400843882,0.299578059,0.364451477,0.098628692,0.338080169,0.043248945,0.139240506,0.573312236,0.368143460,0.158227848,0.633966245,0.519514768,0.386075949,0.263185654,0.375527426,0.699894515,0.327531646,0.341772152,0.260021097,0.643987342,0.541402954,0.584388186,0.357067511,0.475738397,0.493670886,0.166666667,0.667194093,0.439873418,0.473628692,0.252637131,0.375000000,0.491033755,0.243670886,0.327531646,0.498417722,0.200949367,0.752637131,0.468354430,0.455696203,0.360759494,0.384493671,0.370253165,0.750000000,0.117088608,0.420358650,0.429324895,0.622362869,0.386075949,0.664029536,0.660337553,0.637130802,0.446729958,0.256329114,0.207805907,0.320675105,0.241033755,0.111286920,0.204641350,0.602848101,0.360759494,0.046940928,0.611814346,0.585443038,0.211497890,0.291666667,0.540611814,0.087552743,0.390822785,0.472046414,0.352848101,0.788502110,0.417194093,0.350738397,0.712025316,0.468881857,0.395569620,0.723101266,0.416666667,10
1.000000000,0.895569620,0.770305907,0.353902954,0.057489451,0.463607595,0.883966245,0.742616034,0.241561181,0.529008439,0.052215190,0.382383966,0.286392405,0.684599156,0.861286920,0.957542194,0.932489451,0.741297468,0.265295359,0.231012658,0.006329114,0.230485232,0.674578059,0.915611814,0.922468354,0.109704641,0.599683544,0.933544304,0.860232068,0.609704641,0.166666667,0.294303797,0.384493671,0.466772152,0.920358650,0.172995781,0.496835443,0.350738397,0.218881857,0.416139241,0.088080169,0.613924051,0.853902954,0.272151899,0.497362869,0.108122363,0.440400844,0.301160338,0.271097046,0.474683544,0.156645570,0.292721519,0.235759494,0.149789030,0.278481013,0.594936709,0.709388186,0.768987342,0.687763713,0.627109705,0.127637131,0.286392405,0.241033755,0.206751055,0.286919831,0.089662447,0.241561181,0.296940928,0.619198312,0.829113924,0.764767932,0.801687764,0.750000000,0.782700422,0.585970464,0.700421941,0.683016878,0.832278481,0.883438819,0.958333333,14
0.291666667,0.739451477,0.261075949,0.379219409,0.166666667,0.265822785,0.305907173,0.337552743,0.320675105,0.361814346,0.289556962,0.251582278,0.575421941,0.560654008,0.296940928,0.214662447,0.552742616,0.325949367,0.194092827,0.632911392,0.340717300,0.213080169,0.263713080,0.166666667,0.272679325,0.209388186,0.378164557,0.659810127,0.213607595,0.322784810,0.243670886,0.200949367,0.403481013,0.245780591,0.334388186,0.284810127,0.762658228,0.260021097,0.340717300,0.629746835,0.503164557,0.241033755,0.176160338,0.464662447,0.486814346,0.311708861,0.172468354,0.394514768,0.242616034,0.172468354,0.599683544,0.403481013,0.172468354,0.455696203,0.613396624,0.370780591,0.229430380,0.323312236,0.620253165,0.518459916,0.213080169,0.280590717,0.391877637,0.489451477,0.241561181,0.268987342,0.425632911,0.437236287,0.272151899,0.293248945,0.251054852,0.189345992,0.472046414,0.540611814,0.444620253,0.214135021,0.296413502,0.089662447,0.426160338,0.750000000,22
0.166666667,0.833333333,0.208333333,0.666666667,0.875000000,1.000000000,1.000000000,1.000000000,0.614583333,0.125000000,0.916666667,0.979166667,1.000000000,1.000000000,1.000000000,1.000000000,0.083333333,0.791666667,0.916666667,1.000000000,0.739583333,0.416666667,0.125000000,0.250000000,0.458333333,0.583333333,0.250000000,0.125000000,0.000000000,0.166666667,0.125000000,0.125000000,0.041666667,0.395833333,0.750000000,0.750000000,0.708333333,0.750000000,0.750000000,0.750000000,0.666666667,0.791666667,0.750000000,0.125000000,0.500000000,0.833333333,0.958333333,0.875000000,0.958333333,0.979166667,1.000000000,0.916666667,1.000000000,0.916666667,0.833333333,0.958333333,0.916666667,0.708333333,0.395833333,0.083333333,0.416666667,0.416666667,0.166666667,0.312500000,0.458333333,0.333333333,0.541666667,0.166666667,1.000000000,0.958333333,0.083333333,0.583333333,0.791666667,0.041666667,0.625000000,0.916666667,0.916666667,0.916666667,0.125000000,0.583333333,12
0.041666667,0.700949367,0.185126582,0.159810127,0.253164557,0.457805907,0.323839662,0.294831224,0.220991561,0.271097046,0.374472574,0.345464135,0.222046414,0.179852321,0.232594937,0.344409283,0.468354430,0.302742616,0.193565401,0.214662447,0.281645570,0.489451477,0.298523207,0.171940928,0.158227848,0.268987342,0.332805907,0.321729958,0.190400844,0.045886076,0.246835443,0.459915612,0.465717300,0.214662447,0.109177215,0.197784810,0.251054852,0.360232068,0.237341772,0.122890295,0.089135021,0.249472574,0.358122363,0.321202532,0.180379747,0.150843882,0.239451477,0.542721519,0.372890295,0.281118143,0.088080169,0.669303797,0.188291139,0.083860759,0.230485232,0.334388186,0.605485232,0.752637131,0.833333333,0.372890295,0.196729958,0.214662447,0.306434599,0.510021097,0.328059072,0.219409283,0.099156118,0.277426160,0.357594937,0.315928270,0.205168776,0.097573840,0.732594937,0.909810127,0.962552743,0.547468354,0.779008439,0.357067511,0.409282700,0.541666667,18
0.916666667,0.518459916,0.775843882,0.698312236,0.759493671,0.620780591,0.680907173,0.610759494,0.665611814,0.702004219,0.659810127,0.670358650,0.550105485,0.671413502,0.523734177,0.856012658,0.668248945,0.775843882,0.623945148,0.824367089,0.503164557,0.276371308,0.549050633,0.643987342,0.623417722,0.777426160,0.755274262,0.784810127,0.704641350,0.771097046,0.641877637,0.103902954,0.339662447,0.609177215,0.830696203,0.574367089,0.541666667,0.641350211,0.732067511,0.700421941,0.678270042,0.690400844,0.654535865,0.733649789,0.758966245,0.679324895,0.438818565,0.782172996,0.547995781,0.699894515,0.597573840,0.458333333,0.531118143,0.649261603,0.628691983,0.709915612,0.780063291,0.748417722,0.694620253,0.647151899,0.658227848,0.630801688,0.663502110,0.378691983,0.658227848,0.509493671,0.561181435,0.498417722,0.561708861,0.523734177,0.618670886,0.623417722,0.657172996,0.635021097,0.552742616,0.686708861,0.581223629,0.214135021,0.361814346,0.541666667,14
0.375000000,0.728375527,0.936708861,0.931962025,0.875000000,0.875000000,0.875000000,0.875000000,0.956751055,0.972573840,0.963739451,0.972046414,1.000000000,0.998945148,0.963607595,0.988396624,1.000000000,0.991297468,0.951476793,0.884493671,0.955168776,0.992088608,1.000000000,0.976265823,0.910667194,0.867088608,1.000000000,1.000000000,0.984440928,0.941983122,0.916666667,0.940928270,1.000000000,1.000000000,1.000000000,0.886075949,0.899789030,0.974156118,1.000000000,1.000000000,1.000000000,1.000000000,1.000000000,1.000000000,1.000000000,1.000000000,1.000000000,1.000000000,1.000000000,1.000000000,1.000000000,1.000000000,0.970991561,0.728045886,0.343881857,0.518987342,0.460970464,0.392405063,0.587552743,0.267405063,0.656118143,0.341244726,0.450949367,0.463607595,0.354430380,0.582805907,0.300105485,0.497362869,0.345991561,0.509493671,0.581751055,0.390295359,0.718354430,0.294303797,0.566455696,0.388185654,0.417194093,0.527426160,0.277953586,0.666666667,18
0.875000000,0.544303797,0.661392405,0.699367089,0.579641350,0.790611814,0.476793249,0.719936709,0.677215190,0.650843882,0.679852321,0.431434599,0.785864979,0.559599156,0.651371308,0.664556962,0.575949367,0.745253165,0.469936709,0.752637131,0.677742616,0.551160338,0.683016878,0.518987342,0.655063291,0.518459916,0.480485232,0.529535865,0.382911392,0.488396624,0.456223629,0.459388186,0.542721519,0.377637131,0.577004219,0.375527426,0.478375527,0.537447257,0.421940928,0.637130802,0.397151899,0.536392405,0.439345992,0.444092827,0.565928270,0.340717300,0.657700422,0.512130802,0.538502110,0.576476793,0.349683544,0.613924051,0.414029536,0.577531646,0.588607595,0.407700422,0.715189873,0.287974684,0.543776371,0.466244726,0.466772152,0.645042194,0.255801688,0.646624473,0.447257384,0.493670886,0.623417722,0.349683544,0.610232068,0.418776371,0.556434599,0.527426160,0.413502110,0.645569620,0.265295359,0.587025316,0.389240506,0.419303797,0.477848101,0.291666667,18
0.291666667,0.531645570,0.813291139,0.333333333,0.356012658,0.357067511,0.333333333,0.895042194,0.564873418,0.291139241,0.273734177,0.364451477,0.348628692,0.323312236,0.258438819,0.483649789,0.339662447,0.291666667,0.292721519,0.333333333,0.291666667,0.291666667,0.291666667,0.359177215,0.318037975,0.330168776,0.354957806,0.291666667,0.341244726,0.204641350,0.357594937,0.341772152,0.352848101,0.375000000,0.375000000,0.249472574,0.406118143,0.233649789,0.375527426,0.316983122,0.275316456,0.333860759,0.459915612,0.610232068,0.502637131,0.291666667,0.239978903,0.340717300,0.191455696,0.329641350,0.342299578,0.274789030,0.330168776,0.228375527,0.281645570,0.429324895,0.655063291,0.623417722,0.463607595,0.308016878,0.232594937,0.370780591,0.447784810,0.215717300,0.318565401,0.274789030,0.271624473,0.291666667,0.328059072,0.267932489,0.332805907,0.295358650,0.187763713,0.265295359,0.244198312,0.181962025,0.291139241,0.153481013,0.420886076,0.250000000,14
0.333333333,0.540084388,0.477848101,0.738924051,0.508966245,0.628164557,0.639767932,0.401371308,0.511603376,0.508438819,0.737341772,0.445147679,0.634493671,0.550105485,0.500527426,0.555379747,0.428270042,0.667194093,0.380274262,0.484704641,0.345991561,0.579113924,0.622890295,0.295358650,0.260548523,0.306434599,0.420886076,0.582805907,0.437763713,0.593354430,0.411919831,0.409810127,0.398206751,0.420886076,0.528481013,0.390295359,0.492088608,0.375000000,0.488396624,0.406645570,0.489978903,0.514767932,0.459915612,0.684599156,0.348628692,0.514767932,0.502109705,0.479430380,0.604430380,0.426160338,0.668776371,0.458860759,0.616033755,0.117088608,0.281645570,0.024261603,0.418776371,0.530590717,0.416666667,0.647679325,0.397679325,0.421940928,0.325949367,0.386603376,0.495253165,0.354957806,0.574894515,0.372362869,0.511075949,0.143987342,0.449894515,0.470464135,0.343881857,0.546413502,0.334915612,0.487869198,0.378691983,0.514767932,0.463607595,0.375000000,26
0.333333333,0.703586498,0.544303797,0.666139241,0.676687764,0.597573840,0.841244726,0.510548523,0.776371308,0.459915612,0.653481013,0.618670886,0.497890295,0.265822785,0.368670886,0.476793249,0.619198312,0.550105485,0.539556962,0.617088608,0.521097046,0.727848101,0.401371308,0.715717300,0.544831224,0.591244726,0.659282700,0.485232068,0.712025316,0.350738397,0.710443038,0.465189873,0.541139241,0.589135021,0.455168776,0.697257384,0.339135021,0.728375527,0.496308017,0.576476793,0.576476793,0.407700422,0.780063291,0.299050633,0.801160338,0.391350211,0.548523207,0.579113924,0.436708861,0.360232068,0.174578059,0.457805907,0.143459916,0.523206751,0.595464135,0.676687764,0.467827004,0.921413502,0.493143460,0.800105485,0.522679325,0.544831224,0.660864979,0.488924051,0.830696203,0.402426160,0.813818565,0.498417722,0.593881857,0.644514768,0.449367089,0.850210970,0.223101266,0.723101266,0.514240506,0.593354430,0.558544304,0.449367089,0.763713080,0.375000000,10
0.583333333,0.567510549,0.356012658,0.392405063,0.754746835,0.328850211,0.292194093,0.408755274,0.291666667,0.576476793,0.328586498,0.243143460,0.439873418,0.458333333,0.273206751,0.104430380,0.642405063,0.371308017,0.544303797,0.314873418,0.270042194,0.522679325,0.400843882,0.685654008,0.593354430,0.279535865,0.777953586,0.312763713,0.737341772,0.950158228,1.000000000,1.000000000,1.000000000,1.000000000,0.815952993,0.370875363,0.636603376,0.656645570,0.366561181,0.814345992,0.217827004,0.486814346,0.645042194,0.391613924,0.458860759,0.482594937,0.643459916,0.928270042,1.000000000,0.804588608,0.413502110,0.697257384,0.235759494,0.617616034,0.375527426,0.702004219,0.410601266,0.372890295,0.455168776,0.343881857,0.346518987,0.467827004,0.518987342,0.294831224,0.644514768,0.279008439,0.331751055,0.204641350,0.255801688,0.588080169,0.234704641,0.308016878,0.274789030,0.593881857,0.503164557,0.743143460,0.411392405,0.780063291,0.335970464,0.333333333,18
0.833333333,0.360759494,0.379219409,0.404535865,0.343354430,0.393987342,0.697784810,0.805907173,0.873417722,0.928797468,0.949894515,0.882383966,0.935126582,0.914029536,0.860759494,0.833333333,0.833333333,0.897679325,0.916666667,0.916666667,0.798523207,0.334915612,0.436181435,0.352848101,0.347046414,0.506329114,0.783359705,0.943697257,0.979430380,0.992088608,0.949367089,0.852320675,0.987341772,1.000000000,0.954641350,0.901898734,0.868143460,0.834388186,0.833333333,0.882911392,0.899789030,0.892932489,0.958333333,0.958333333,0.985232068,1.000000000,1.000000000,1.000000000,1.000000000,1.000000000,0.857924578,0.597227716,0.333333333,0.333333333,0.737869198,0.898206751,0.886075949,0.848101266,0.915611814,0.816983122,0.892932489,0.975738397,1.000000000,1.000000000,1.000000000,1.000000000,1.000000000,1.000000000,1.000000000,1.000000000,1.000000000,0.956751055,0.806962025,0.629746835,0.899789030,0.948312236,0.887130802,0.857067511,0.907700422,0.958333333,14
0.291666667,0.690928270,0.593354430,0.563818565,0.686708861,0.544303797,0.660337553,0.577004219,0.554852321,0.607594937,0.343881857,0.683544304,0.565928270,0.444620253,0.674578059,0.427742616,0.638185654,0.619725738,0.525316456,0.651371308,0.385548523,0.520042194,0.523206751,0.530590717,0.631856540,0.364978903,0.722573840,0.572784810,0.414556962,0.759493671,0.525316456,0.694092827,0.473628692,0.454113924,0.633438819,0.321202532,0.540084388,0.497890295,0.434599156,0.595464135,0.375527426,0.610759494,0.587025316,0.431962025,0.857594937,0.431962025,0.716772152,0.612869198,0.472573840,0.756856540,0.411919831,0.570675105,0.596518987,0.516350211,0.650843882,0.427215190,0.621835443,0.601793249,0.480485232,0.770569620,0.419303797,0.563291139,0.514240506,0.371835443,0.532172996,0.472046414,0.342827004,0.071202532,0.060654008,0.732067511,0.490506329,0.643459916,0.600210970,0.399261603,0.373945148,0.279535865,0.501582278,0.523734177,0.425632911,0.541666667,2
0.791666667,0.965717300,0.797336498,0.513317511,0.262130802,0.228375527,0.708333333,0.708333333,0.622890295,0.529272152,0.442246835,0.430379747,0.665084388,0.612869198,0.560654008,0.652426160,0.734704641,0.691455696,0.632911392,0.806962025,0.715189873,0.621308017,0.583333333,0.565400844,0.514767932,0.758438819,0.851793249,0.782172996,0.724683544,0.740506329,0.713607595,0.783227848,0.455168776,0.404535865,0.627109705,0.854957806,0.775843882,0.601793249,0.583333333,0.510548523,0.467035865,0.484440928,0.511075949,0.615506329,0.593354430,0.558544304,0.667194093,0.877637131,1.000000000,1.000000000,1.000000000,1.000000000,1.000000000,1.000000000,1.000000000,1.000000000,1.000000000,1.000000000,1.000000000,1.000000000,0.962695158,0.716483201,0.308983139,0.445675105,0.563818565,0.516350211,0.452531646,0.417721519,0.551687764,0.717827004,0.891877637,1.000000000,1.000000000,1.000000000,1.000000000,1.000000000,1.000000000,1.000000000,1.000000000,1.000000000,16
0.583333333,0.555379747,0.625000000,0.522151899,0.553797468,0.453586498,0.622362869,0.676687764,0.460443038,0.495253165,0.571202532,0.676687764,0.627109705,0.196729958,0.251582278,0.600210970,0.561181435,0.732594937,0.470991561,0.723628692,0.553797468,0.564345992,0.645042194,0.512130802,0.616561181,0.472573840,0.536919831,0.527426160,0.590717300,0.541666667,0.385548523,0.603902954,0.438818565,0.482067511,0.582278481,0.476793249,0.647679325,0.473101266,0.646097046,0.586497890,0.465189873,0.655590717,0.480485232,0.737341772,0.613396624,0.590189873,0.582805907,0.555379747,0.649789030,0.474156118,0.651371308,0.507383966,0.444092827,0.513713080,0.472573840,0.614451477,0.470464135,0.571729958,0.530063291,0.521624473,0.351793249,0.621835443,0.550105485,0.491561181,0.532700422,0.534282700,0.745253165,0.341772152,0.611286920,0.478375527,0.493670886,0.504219409,0.441983122,0.621308017,0.370253165,0.484704641,0.459388186,0.429852321,0.479430380,0.291666667,12
0.500000000,0.613924051,0.529535865,0.633438819,0.600738397,0.597573840,0.591244726,0.527426160,0.682489451,0.658755274,0.477320675,0.702004219,0.549578059,0.616033755,0.423523207,0.612341772,0.503691983,0.540611814,0.582278481,0.410337553,0.581223629,0.487341772,0.695675105,0.430907173,0.760021097,0.604430380,0.770042194,0.706751055,0.672995781,0.689873418,0.613924051,0.188818565,0.570675105,0.628164557,0.090189873,0.603902954,0.416666667,0.474683544,0.594409283,0.389767932,0.435126582,0.545886076,0.259493671,0.470464135,0.504219409,0.787974684,0.397151899,0.625527426,0.501054852,0.678797468,0.434071730,0.421413502,0.820147679,0.680907173,0.541666667,0.832805907,0.594409283,0.812236287,0.463080169,0.693037975,0.592299578,0.673523207,0.705696203,0.722573840,0.751054852,0.548523207,0.847046414,0.370253165,0.865506329,0.533227848,0.698839662,0.454641350,0.560126582,0.406118143,0.676160338,0.830696203,0.783227848,0.887130802,0.309071730,1.000000000,16
0.333333333,0.693037975,0.526898734,0.647151899,0.577531646,0.391877637,0.785337553,0.435126582,0.636603376,0.543248945,0.617088608,0.584388186,0.358122363,0.819620253,0.386075949,0.610759494,0.501054852,0.542194093,0.731012658,0.395042194,0.851265823,0.344936709,0.593354430,0.517932489,0.534810127,0.715717300,0.396097046,0.741033755,0.386603376,0.531645570,0.565400844,0.425105485,0.722046414,0.538502110,0.380801688,0.675105485,0.528481013,0.491561181,0.622890295,0.361814346,0.715189873,0.415084388,0.611814346,0.537974684,0.421413502,0.598101266,0.214135021,0.672468354,0.720464135,0.676160338,0.409810127,0.198312236,0.616033755,0.308544304,0.557489451,0.454113924,0.517932489,0.648206751,0.647679325,0.383702532,0.633438819,0.463607595,0.499472574,0.493143460,0.407700422,0.691983122,0.342827004,0.634493671,0.415084388,0.526371308,0.559599156,0.405063291,0.762658228,0.366561181,0.608122363,0.471518987,0.523206751,0.623417722,0.467299578,0.625000000,14
0.166666667,0.367088608,0.432489451,0.383966245,0.416666667,0.050632911,0.705168776,0.663502110,0.549050633,0.614978903,0.421940928,0.587025316,0.601793249,0.580696203,0.736814346,0.626582278,0.596518987,0.504219409,0.478375527,0.622362869,0.429324895,0.613924051,0.363396624,0.551687764,0.529008439,0.609177215,0.419303797,0.405063291,0.529535865,0.411919831,0.570675105,0.463080169,0.443037975,0.576476793,0.486814346,0.758438819,0.562236287,0.628691983,0.623417722,0.338080169,0.857594937,0.485232068,0.622362869,0.741561181,0.419303797,0.901371308,0.405590717,0.443037975,0.493143460,0.804852321,0.516350211,0.793248945,0.386603376,0.525316456,0.468881857,0.882911392,0.288502110,0.404535865,0.459388186,0.335443038,0.458333333,0.399261603,0.430907173,0.383438819,0.413502110,0.569620253,0.607067511,0.649261603,0.348628692,0.291666667,0.500000000,0.341772152,0.325949367,0.467299578,0.252637131,0.551687764,0.367616034,0.440400844,0.408755274,0.000000000,22
0.083333333,0.728375527,0.284810127,0.781645570,0.896360759,0.979430380,1.000000000,1.000000000,0.727848101,0.248714399,0.867088608,0.306962025,0.642405063,0.487341772,0.852056962,0.462025316,0.627637131,0.607858650,0.263713080,0.246835443,0.425105485,0.702531646,0.337025316,0.441455696,0.782172996,0.438027426,0.581751055,0.566455696,0.291139241,0.796413502,0.702004219,0.524261603,0.346518987,0.281645570,0.675632911,0.610232068,0.619725738,0.552742616,0.500000000,0.618670886,0.214662447,0.358649789,0.500000000,0.352320675,0.273206751,0.685654008,0.559071730,0.638185654,0.600738397,0.262658228,0.315400844,0.694092827,0.755801688,0.449894515,0.252637131,0.398206751,0.681434599,0.621308017,0.619725738,0.665611814,0.560654008,0.747362869,0.460443038,0.250000000,0.470464135,0.514240506,0.147151899,0.434071730,0.246308017,0.372890295,0.398206751,0.176687764,0.041666667,0.237869198,0.767932489,0.776898734,0.770042194,0.633966245,0.396097046,0.916666667,4
0.208333333,0.488396624,0.686181435,0.841772152,0.997362869,1.000000000,1.000000000,1.000000000,1.000000000,1.000000000,1.000000000,0.847573840,0.318565401,0.409810127,0.667194093,0.899789030,0.837552743,0.891350211,0.953586498,1.000000000,1.000000000,1.000000000,0.982067511,0.954641350,0.939082278,0.923523207,0.951476793,1.000000000,1.000000000,1.000000000,1.000000000,1.000000000,1.000000000,1.000000000,1.000000000,1.000000000,1.000000000,1.000000000,1.000000000,1.000000000,1.000000000,1.000000000,1.000000000,1.000000000,1.000000000,1.000000000,1.000000000,1.000000000,1.000000000,1.000000000,1.000000000,1.000000000,1.000000000,0.975738397,0.972046414,1.000000000,1.000000000,1.000000000,0.995055380,0.980089662,0.929522679,0.963080169,1.000000000,1.000000000,1.000000000,1.000000000,1.000000000,1.000000000,1.000000000,1.000000000,1.000000000,1.000000000,1.000000000,1.000000000,1.000000000,0.996044304,0.762658228,0.487078059,0.344409283,0.500000000,0
0.416666667,0.410864979,0.559599156,0.717827004,0.468881857,0.763185654,0.380274262,0.333860759,0.405063291,0.806962025,0.515295359,0.710970464,0.694092827,0.501054852,0.249472574,0.274789030,0.555379747,0.707278481,0.822784810,0.198839662,0.831751055,0.606540084,0.666666667,0.389767932,0.331751055,0.673523207,0.431434599,0.650843882,0.343881857,0.669831224,0.568565401,0.442510549,0.660864979,0.338080169,0.604957806,0.513185654,0.428270042,0.774261603,0.536919831,0.593881857,0.619198312,0.544303797,0.814345992,0.312236287,0.328059072,0.616033755,0.820675105,0.648734177,0.723628692,0.681434599,0.485232068,0.821729958,0.361286920,0.260021097,0.716772152,0.735759494,0.362341772,0.257911392,0.544831224,0.313291139,0.477848101,0.463080169,0.336497890,0.583333333,0.261603376,0.536919831,0.482594937,0.354430380,0.420886076,0.268987342,0.611814346,0.393459916,0.456751055,0.583333333,0.236814346,0.590189873,0.271624473,0.415611814,0.405063291,0.333333333,0
0.416666667,0.722046414,0.459915612,0.617088608,0.686181435,0.516877637,0.796413502,0.393459916,0.621835443,0.534810127,0.450421941,0.501582278,0.316455696,0.656118143,0.406645570,0.543776371,0.440928270,0.437763713,0.516877637,0.324894515,0.573839662,0.380801688,0.512130802,0.662974684,0.527953586,0.324894515,0.491561181,0.362341772,0.334388186,0.482067511,0.704641350,0.527426160,0.835443038,0.292194093,0.340189873,0.559599156,0.743670886,0.758438819,0.530590717,0.878691983,0.451476793,0.808544304,0.678270042,0.567510549,0.732067511,0.498945148,0.828059072,0.289556962,0.658227848,0.573312236,0.552742616,0.675632911,0.417194093,0.968354430,0.467827004,0.670886076,0.585970464,0.489978903,0.738396624,0.352320675,0.818037975,0.474683544,0.541139241,0.511075949,0.467827004,0.666139241,0.260548523,0.585443038,0.359177215,0.466244726,0.487341772,0.363396624,0.681962025,0.373945148,0.671413502,0.536919831,0.644514768,0.648734177,0.325949367,0.666666667,2
0.041666667,0.653481013,0.636075949,0.699367089,0.525843882,0.769514768,0.512658228,0.526898734,0.717827004,0.279535865,0.705696203,0.311708861,0.280590717,0.371835443,0.704641350,0.524789030,0.522679325,0.229430380,0.412447257,0.361286920,0.333333333,0.398734177,0.827531646,0.485232068,0.638185654,0.242616034,0.397679325,0.444620253,0.643459916,0.232067511,0.375527426,0.404008439,0.675632911,0.313291139,0.364451477,0.293776371,0.790084388,0.560654008,0.560126582,0.781118143,0.296413502,0.361814346,0.369198312,0.732067511,0.261603376,0.613396624,0.473628692,0.329641350,0.715717300,0.388185654,0.535864979,0.540084388,0.419303797,0.724683544,0.492616034,0.467299578,0.608122363,0.379219409,0.741033755,0.745253165,0.512130802,0.674578059,0.438291139,0.697784810,0.569092827,0.505801688,0.852848101,0.413502110,0.564873418,0.525316456,0.345991561,0.465717300,0.432489451,0.676160338,0.444620253,0.841772152,0.605485232,0.515822785,0.636075949,0.458333333,8
0.916666667,0.846518987,0.604957806,0.222573840,0.644514768,0.832805907,0.574367089,0.230485232,0.548523207,0.561708861,0.875000000,0.713607595,0.477320675,0.224683544,0.625000000,0.321202532,0.513713080,0.466772152,0.262130802,0.707805907,0.597046414,0.481012658,0.258438819,0.428270042,0.774261603,0.422468354,0.716772152,0.147151899,0.500527426,0.422995781,0.149261603,0.427742616,0.755801688,0.333860759,0.154535865,0.204641350,0.275316456,0.112869198,0.523206751,0.698312236,0.594936709,0.141350211,0.500000000,0.386075949,0.409282700,0.411919831,0.809599156,0.546940928,0.659282700,0.452531646,0.818565401,0.238924051,0.313818565,0.323312236,0.867616034,0.373417722,0.537974684,0.279535865,0.449894515,0.506329114,0.233122363,0.429852321,0.147151899,0.510021097,0.251582278,0.388713080,0.359704641,0.781118143,0.552215190,0.577531646,0.827531646,0.371308017,0.872890295,0.587025316,0.723628692,0.272151899,0.728902954,0.306962025,0.451476793,0.458333333,4
0.333333333,0.488396624,0.428270042,0.416666667,0.373417722,0.408227848,0.428270042,0.348628692,0.415084388,0.392405063,0.316983122,0.360232068,0.407700422,0.421940928,0.420886076,0.308016878,0.307489451,0.424050633,0.472573840,0.262130802,0.433544304,0.579113924,0.341244726,0.399789030,0.554852321,0.395042194,0.312763713,0.572257384,0.443037975,0.253164557,0.450949367,0.503691983,0.271624473,0.447784810,0.557489451,0.322784810,0.444092827,0.495780591,0.434599156,0.390822785,0.629219409,0.386603376,0.300105485,0.417721519,0.486286920,0.386075949,0.402426160,0.574367089,0.265295359,0.762130802,0.341244726,0.449894515,0.416139241,0.370253165,0.540611814,0.310654008,0.597573840,0.453059072,0.179324895,0.497890295,0.446202532,0.325949367,0.363924051,0.519514768,0.400316456,0.344409283,0.447784810,0.365506329,0.424050633,0.416666667,0.343881857,0.251582278,0.401371308,0.472046414,0.233649789,0.378164557,0.435126582,0.353375527,0.752637131,0.333333333,16
0.708333333,0.498945148,0.680379747,0.639240506,0.647679325,0.674050633,0.575949367,0.663502110,0.486814346,0.634493671,0.547468354,0.639240506,0.597573840,0.489978903,0.537447257,0.549050633,0.568037975,0.466772152,0.519514768,0.631856540,0.553797468,0.692510549,0.396097046,0.640822785,0.474683544,0.606540084,0.670886076,0.623417722,0.770569620,0.668248945,0.664029536,0.524261603,0.571729958,0.557489451,0.533227848,0.681962025,0.463607595,0.830696203,0.583333333,0.511603376,0.535337553,0.595464135,0.689345992,0.502637131,0.676687764,0.513713080,0.582278481,0.526371308,0.383966245,0.634493671,0.507911392,0.691455696,0.591772152,0.623417722,0.546413502,0.502109705,0.649261603,0.513185654,0.657172996,0.568565401,0.578059072,0.581223629,0.644514768,0.647679325,0.362869198,0.572784810,0.414556962,0.542194093,0.497362869,0.465717300,0.541139241,0.435654008,0.497890295,0.437236287,0.453059072,0.379219409,0.444620253,0.555379747,0.445675105,0.708333333,6
0.625000000,0.574894515,0.516877637,0.594936709,0.422995781,0.608122363,0.532436709,0.506592827,0.307489451,0.555907173,0.484177215,0.690928270,0.270042194,0.572784810,0.484704641,0.483649789,0.535337553,0.966772152,0.515295359,0.362869198,0.585443038,0.389767932,0.672732068,0.698575949,0.483122363,0.417721519,0.510548523,0.541666667,0.541666667,0.866561181,0.541666667,0.541666667,0.396624473,0.567510549,0.470464135,0.402953586,0.554852321,0.845464135,0.459388186,0.334915612,0.489978903,0.350738397,0.495780591,0.401371308,0.437236287,0.541666667,0.224156118,0.458333333,0.730485232,0.500527426,0.611286920,0.160864979,0.311708861,0.312236287,0.456751055,0.352320675,0.397151899,0.345464135,0.452004219,0.359177215,0.345464135,0.360759494,0.713080169,0.575949367,0.738396624,0.333333333,0.296940928,0.425105485,0.240506329,0.375000000,0.270569620,0.419831224,0.392405063,0.389240506,0.500000000,0.296413502,0.474683544,0.430379747,0.123417722,0.000000000,6
0.166666667,0.901371308,0.570675105,0.560654008,0.608649789,0.909810127,1.000000000,0.657172996,0.369725738,0.851265823,0.515295359,0.151371308,0.521624473,0.625000000,0.489451477,0.393459916,0.584388186,0.552742616,0.108122363,0.632383966,0.556962025,0.353375527,0.239978903,0.521097046,0.204113924,0.506856540,0.822784810,0.512130802,0.271097046,0.400843882,0.441983122,0.321993671,0.291666667,0.545358650,0.792194093,0.517405063,0.531118143,0.708333333,0.643987342,0.316983122,0.272151899,0.532172996,0.325949367,0.263185654,0.657700422,0.575949367,0.377109705,0.188818565,0.559071730,0.315400844,0.430379747,0.511075949,0.158755274,0.558544304,0.807489451,0.497362869,0.606540084,0.435126582,0.351265823,0.495253165,0.915611814,0.638713080,0.722046414,0.387658228,0.358649789,0.525843882,0.533227848,0.267405063,0.514240506,0.378164557,0.502637131,0.494198312,0.107067511,0.560126582,0.689873418,0.516350211,0.292194093,0.460443038,0.766350211,0.500000000,4
0.291666667,0.647679325,0.516877637,0.358649789,0.599156118,0.386603376,0.552742616,0.854957806,0.983122363,1.000000000,1.000000000,1.000000000,1.000000000,1.000000000,1.000000000,1.000000000,1.000000000,0.901371308,0.328586498,0.690928270,0.255801688,0.679324895,0.376054852,0.646624473,0.414029536,0.669831224,0.449894515,0.581751055,0.507383966,0.510548523,0.546413502,0.506329114,0.569620253,0.431170886,0.437763713,0.613396624,0.365506329,0.655590717,0.326476793,0.744198312,0.526635021,0.309071730,0.801160338,0.429324895,0.590717300,0.366033755,0.557489451,0.889240506,1.000000000,0.856737869,0.541007384,0.507383966,0.841772152,1.000000000,1.000000000,0.952927215,0.700685654,0.343881857,0.726265823,0.379746835,0.735759494,0.256329114,0.710443038,0.420358650,0.618143460,0.442510549,0.580168776,0.429852321,0.505274262,0.845464135,0.832014768,0.525448312,0.510548523,0.656118143,0.387130802,0.698839662,0.396624473,0.707805907,0.354430380,0.750000000,4
0.291666667,0.785864979,0.347046414,0.856012658,0.393987342,0.735495781,0.503428270,0.343354430,0.820147679,0.385548523,0.765295359,0.554324895,0.438291139,0.753955696,0.521888186,0.412447257,0.800632911,0.928270042,0.571729958,0.400316456,0.716772152,0.416139241,0.724156118,0.491033755,0.786392405,0.491033755,0.469936709,0.648206751,0.454113924,0.665875527,0.433808017,0.471518987,0.581223629,0.507383966,0.516877637,0.503691983,0.931962025,0.839003165,0.460838608,0.476265823,0.592299578,0.360232068,0.604430380,0.962025316,0.825949367,0.462025316,0.607067511,0.672204641,0.397943038,0.601793249,0.475210970,0.641350211,0.504219409,0.612869198,0.379746835,0.237341772,0.368143460,0.326476793,0.750527426,0.387658228,0.714662447,0.456751055,0.725738397,0.301687764,0.065400844,0.075949367,0.466244726,0.400316456,0.123945148,0.520042194,0.251054852,0.732594937,0.260021097,0.554852321,0.427215190,0.258438819,0.771097046,0.974419831,0.619198312,0.250000000,2
0.833333333,0.416139241,0.270569620,0.439873418,0.544303797,0.672468354,0.674578059,0.746308017,0.536392405,0.298523207,0.474156118,0.479430380,0.023734177,0.649261603,0.594936709,0.599683544,0.799578059,0.217299578,0.449367089,0.474156118,0.122890295,0.602848101,0.636075949,0.421940928,0.006329114,0.220464135,0.718354430,0.596518987,0.803797468,0.414556962,0.200421941,0.095991561,0.243934599,0.537447257,0.656118143,0.290611814,0.900052743,0.717299578,0.469936709,0.884493671,0.177215190,0.202531646,0.151371308,0.498945148,0.320675105,0.401898734,0.492088608,0.849683544,0.506329114,0.474156118,0.320147679,0.253691983,0.861286920,0.635021097,0.500527426,0.849683544,0.409810127,0.689345992,0.247890295,0.325421941,0.515822785,0.491033755,0.142932489,0.358122363,0.424578059,0.158755274,0.147679325,0.609177215,0.530063291,0.655063291,0.319620253,0.371835443,0.518987342,0.422995781,0.219409283,0.496308017,0.319092827,0.290611814,0.312763713,0.375000000,2
0.458333333,0.689345992,0.460970464,0.674050633,0.575949367,0.551687764,0.719409283,0.726002110,0.514240506,0.467299578,0.626582278,0.506856540,0.530590717,0.420358650,0.689873418,0.421413502,0.603902954,0.518987342,0.511075949,0.460443038,0.325685654,0.418776371,0.742088608,0.819356540,0.540216245,0.346518987,0.820675105,0.358649789,0.624472574,0.467299578,0.566983122,0.517405063,0.577004219,0.522679325,0.514240506,0.608649789,0.483122363,0.722046414,0.963080169,0.989715190,0.739451477,0.415348101,0.645042194,0.494198312,0.526371308,0.413502110,0.460443038,0.768459916,0.840189873,0.532172996,0.376054852,0.739978903,0.960443038,0.998945148,1.000000000,1.000000000,1.000000000,1.000000000,1.000000000,1.000000000,0.889240506,0.627637131,0.465189873,0.529535865,0.373945148,0.606540084,0.337025316,0.637130802,0.422995781,0.469936709,0.813291139,0.983649789,1.000000000,1.000000000,1.000000000,1.000000000,1.000000000,0.960937500,0.702243209,0.208333333,16
0.291666667,0.291666667,0.668776371,0.924050633,1.000000000,1.000000000,0.976002110,0.746308017,0.385812236,0.502637131,0.745253165,0.909282700,0.982858650,0.999604430,0.986352848,0.965585443,0.946466245,0.928797468,0.938818565,1.000000000,1.000000000,1.000000000,0.835443038,0.539029536,0.481012658,0.631856540,0.200421941,0.765822785,0.428797468,0.514767932,0.518987342,0.454641350,0.686181435,0.297468354,0.639767932,0.395042194,0.560126582,0.698839662,0.398470464,0.178797468,0.779535865,0.350738397,0.544303797,0.496308017,0.392932489,0.825949367,0.995253165,0.677215190,0.359177215,0.528481013,0.581223629,0.449367089,0.753691983,0.435654008,0.682489451,0.427215190,0.537974684,0.633966245,0.329113924,0.676160338,0.888185654,0.962552743,0.991297468,1.000000000,1.000000000,0.982364188,0.864204246,0.461069357,0.598628692,0.513713080,0.501582278,0.836497890,1.000000000,1.000000000,0.992088608,0.970595992,0.958333333,0.970991561,1.000000000,1.000000000,10
0.500000000,0.167194093,0.541666667,0.680907173,0.797468354,0.732067511,0.755801688,0.772679325,0.529535865,0.876054852,0.421413502,0.758438819,0.598628692,0.826476793,0.680907173,0.637130802,0.700949367,0.454113924,0.771624473,0.489978903,0.866561181,0.578586498,0.747890295,0.568037975,0.648206751,0.325421941,0.392932489,0.561181435,0.792194093,0.560126582,0.775843882,0.433016878,0.741561181,0.654535865,0.588607595,0.650843882,0.728375527,0.749472574,0.544303797,0.856012658,0.435654008,0.741033755,0.384493671,0.299578059,0.484704641,0.648734177,0.586497890,0.679852321,0.534810127,0.700421941,0.437763713,0.681434599,0.477320675,0.630274262,0.442510549,0.589662447,0.360232068,0.709915612,0.323839662,0.777953586,0.361814346,0.627109705,0.377637131,0.534282700,0.490506329,0.483122363,0.547995781,0.437763713,0.596518987,0.337025316,0.633438819,0.378691983,0.695411392,0.488924051,0.539556962,0.435654008,0.656118143,0.434599156,0.670358650,0.333333333,14
0.750000000,0.384493671,0.427215190,0.976265823,0.555379747,0.361814346,0.588607595,0.685126582,0.471518987,0.331223629,0.454641350,0.266877637,0.510021097,0.644514768,0.470991561,0.327004219,0.415611814,0.420886076,0.551687764,0.255274262,0.508438819,0.314345992,0.500000000,0.962025316,0.539029536,0.118143460,0.149261603,0.422995781,0.333333333,0.441983122,0.133438819,0.082805907,0.513185654,0.284282700,0.454113924,0.307489451,0.398206751,0.417721519,0.671940928,0.446202532,0.137658228,0.516877637,0.126054852,0.514767932,0.092299578,0.081223629,0.445675105,0.224683544,0.498417722,0.359704641,0.483649789,0.368670886,0.399261603,0.378164557,0.290611814,0.459388186,0.905063291,0.308544304,0.421413502,0.344409283,0.731012658,0.255801688,0.533227848,0.305379747,0.561181435,0.444092827,0.263185654,0.728375527,0.441455696,0.329641350,0.543776371,0.417194093,0.381329114,0.414293249,0.306962025,0.305907173,0.556962025,0.302215190,0.393987342,0.416666667,0
0.291666667,0.631856540,0.277953586,0.600210970,0.450949367,0.530063291,0.450949367,0.453059072,0.501582278,0.383966245,0.481540084,0.367616034,0.447257384,0.684599156,0.916666667,0.928270042,0.923786920,0.542721519,0.398734177,0.454113924,0.399789030,0.797468354,1.000000000,1.000000000,0.712882384,0.290611814,0.656118143,0.469672996,0.323312236,0.482594937,0.342827004,0.679324895,0.916930380,0.833860759,0.474749473,0.525316456,0.410864979,0.603375527,0.297468354,0.570675105,0.341244726,0.508438819,0.313291139,0.660864979,0.917721519,1.000000000,0.830300633,0.424841772,0.465189873,0.402953586,0.565928270,0.370253165,0.452004219,0.254219409,0.444092827,0.735495781,0.968881857,1.000000000,1.000000000,1.000000000,0.828125000,0.385663898,0.621835443,0.366561181,0.608649789,0.276371308,0.619725738,0.245253165,0.563291139,0.320147679,0.462552743,0.324367089,0.296940928,0.344409283,0.329113924,0.395042194,0.876582278,0.752637131,0.669831224,0.041666667,2
0.666666667,0.785337553,0.675105485,0.718354430,0.575421941,0.645042194,0.559599156,0.703059072,0.642932489,0.677742616,0.710443038,0.642932489,0.584915612,0.474683544,0.729430380,0.653481013,0.853375527,0.486286920,0.796413502,0.392405063,0.746835443,0.521097046,0.809599156,0.652426160,0.728902954,0.610759494,0.771624473,0.550105485,0.621308017,0.617088608,0.620253165,0.642405063,0.594936709,0.779535865,0.616033755,0.725210970,0.517405063,0.785864979,0.448312236,0.822784810,0.830168776,0.698839662,0.578059072,0.467827004,0.191455696,0.521097046,0.627109705,0.513185654,0.731540084,0.621835443,0.641877637,0.680379747,0.776371308,0.734704641,0.524789030,0.621835443,0.492616034,0.679852321,0.474156118,0.828586498,0.472573840,0.807489451,0.564873418,0.676687764,0.571729958,0.606012658,0.572257384,0.709915612,0.638713080,0.584915612,0.639767932,0.642932489,0.568565401,0.438291139,0.623945148,0.575421941,0.612341772,0.512658228,0.697784810,0.416666667,12
0.375000000,0.680379747,0.783755274,0.571202532,0.618670886,0.305379747,0.500000000,0.310126582,0.400843882,0.651898734,0.636603376,0.179324895,0.516877637,0.252109705,0.542721519,0.376054852,0.567510549,0.386603376,0.418248945,0.500000000,0.335443038,0.381856540,0.310654008,0.523206751,0.263713080,0.561181435,0.322257384,0.474156118,0.393459916,0.414029536,0.416139241,0.454113924,0.583333333,0.302215190,0.527953586,0.404008439,0.636603376,0.350738397,0.531118143,0.420886076,0.477848101,0.375000000,0.479430380,0.559599156,0.265295359,0.475210970,0.190400844,0.551687764,0.303270042,0.578586498,0.306434599,0.573839662,0.337025316,0.431962025,0.328586498,0.349156118,0.439873418,0.188818565,0.451476793,0.360759494,0.536392405,0.349683544,0.469936709,0.250000000,0.373417722,0.356540084,0.329641350,0.408755274,0.214662447,0.444620253,0.242616034,0.494725738,0.291139241,0.357594937,0.493670886,0.382911392,0.350210970,0.283227848,0.322257384,0.875000000,0
0.833333333,0.176687764,0.168248945,0.517405063,0.561708861,0.383438819,0.720991561,0.473101266,0.571202532,0.791666667,0.791666667,0.375000000,0.479430380,0.652426160,0.322257384,0.597046414,0.228902954,0.740506329,0.569092827,0.400316456,0.582805907,0.542721519,0.358122363,0.651371308,0.601793249,0.272151899,0.595991561,0.745253165,0.947257384,0.812236287,0.762658228,0.233122363,0.746835443,0.664029536,0.446729958,0.494725738,0.652953586,0.496835443,0.415348101,0.638449367,0.551687764,0.285864979,0.574894515,0.395569620,0.455696203,0.216244726,0.083333333,0.314345992,0.658227848,0.878691983,0.606540084,0.388185654,0.447784810,0.484177215,0.376582278,0.454641350,0.030590717,0.239978903,0.751054852,0.799578059,0.552215190,0.277953586,0.594409283,0.347573840,0.377637131,0.568037975,0.258966245,0.323839662,0.226793249,0.496308017,0.687763713,0.233122363,0.348628692,0.924578059,0.587552743,0.666666667,0.559071730,0.235759494,0.462552743,0.875000000,8
0.916666667,0.778217300,0.639767932,0.412974684,0.242088608,0.395042194,0.632383966,0.708333333,0.770305907,0.869198312,0.710970464,0.481540084,0.343881857,0.323312236,0.637130802,0.666666667,0.595464135,0.285864979,0.268459916,0.453586498,0.334915612,0.294303797,0.291666667,0.396097046,0.547468354,0.583333333,0.782700422,0.453059072,0.232594937,0.205696203,0.507383966,0.623945148,0.323312236,0.512130802,0.664029536,0.428270042,0.676160338,0.375527426,0.635021097,0.259493671,0.615506329,0.316983122,0.619198312,0.426687764,0.664556962,0.419303797,0.571202532,0.449894515,0.552742616,0.468881857,0.403481013,0.468354430,0.418248945,0.800632911,1.000000000,1.000000000,1.000000000,0.965585443,0.664293249,0.175105485,0.808016878,0.339662447,0.829641350,0.984177215,1.000000000,1.000000000,1.000000000,1.000000000,1.000000000,1.000000000,1.000000000,1.000000000,1.000000000,1.000000000,1.000000000,1.000000000,0.978725385,0.806614646,0.358649789,0.833333333,0
0.583333333,0.823839662,0.563818565,0.652426160,0.489978903,0.728375527,0.662974684,0.747362869,0.646624473,0.665611814,0.630801688,0.680379747,0.545886076,0.607067511,0.716244726,0.601265823,0.543248945,0.505274262,0.613924051,0.558016878,0.638185654,0.475738397,0.646624473,0.386075949,0.720464135,0.435654008,0.789029536,0.588607595,0.661392405,0.666666667,0.774261603,0.517405063,0.687236287,0.625527426,0.671940928,0.596518987,0.752637131,0.788238397,0.647943038,0.626582278,0.526371308,0.485759494,0.574367089,0.576476793,0.639767932,0.572784810,0.644514768,0.414029536,0.664029536,0.493143460,0.737869198,1.000000000,1.000000000,1.000000000,1.000000000,1.000000000,1.000000000,1.000000000,0.814910502,0.437850244,0.603902954,0.907700422,0.791534810,0.468222574,0.594409283,0.459388186,0.454641350,0.750000000,0.575949367,0.491561181,0.671677215,0.451213080,0.424578059,0.753691983,0.593354430,0.489978903,0.633438819,0.403481013,0.732594937,0.291666667,6
0.666666667,0.378691983,0.618670886,0.464662447,0.616561181,0.429852321,0.493670886,0.386075949,0.524789030,0.800105485,0.906118143,0.988396624,0.469936709,0.618670886,0.426687764,0.510021097,0.425369198,0.281381857,0.603902954,0.866561181,0.714398734,0.446993671,0.495253165,0.423523207,0.404008439,0.430907173,0.451476793,0.540611814,0.825421941,0.562763713,0.410864979,0.357067511,0.390822785,0.640295359,0.836102321,0.949235232,0.591772152,0.382911392,0.370253165,0.418776371,0.717035865,0.708860759,0.410601266,0.344936709,0.421413502,0.339135021,0.396097046,0.423523207,0.380801688,0.472573840,0.368143460,0.426160338,0.391350211,0.651898734,0.857594937,1.000000000,0.987869198,0.969936709,1.000000000,1.000000000,0.936115506,0.642998418,0.387130802,0.638185654,0.879878692,0.927742616,0.583201477,0.323312236,0.476793249,0.343881857,0.478375527,0.962552743,1.000000000,0.996835443,0.958333333,0.960443038,0.987341772,0.658227848,0.334915612,0.458333333,12
0.666666667,0.527953586,0.530063291,0.633438819,0.052742616,0.709915612,0.681434599,0.510548523,0.853902954,0.479430380,0.454113924,0.644251055,0.635021097,0.329113924,0.395569620,0.500000000,0.167194093,0.205168776,0.517405063,0.275316456,0.644514768,0.319620253,0.568037975,0.325949367,0.710970464,0.294303797,0.629746835,0.311181435,0.356012658,0.423523207,0.334388186,0.426687764,0.627109705,0.502109705,0.026898734,0.670358650,0.369725738,0.486814346,0.467299578,0.717827004,0.665084388,0.458860759,0.249472574,0.494198312,0.164556962,0.721518987,0.388185654,0.415084388,0.383438819,0.943565401,0.544831224,0.679852321,0.115506329,0.655590717,0.423523207,0.415084388,0.504746835,0.763713080,0.549050633,0.563818565,0.933016878,0.761603376,0.379746835,0.063291139,0.538502110,0.268459916,0.412447257,0.380801688,0.387658228,0.527426160,0.373417722,0.510021097,0.450421941,0.680379747,0.724683544,0.370253165,0.864978903,0.313818565,0.444620253,0.333333333,4
0.458333333,0.686181435,0.612869198,0.555907173,0.665084388,0.491561181,0.775843882,0.561708861,0.572784810,0.673523207,0.566455696,0.737341772,0.433016878,0.719409283,0.598628692,0.530590717,0.799578059,0.462552743,0.728375527,0.519514768,0.511603376,0.657172996,0.412974684,0.683016878,0.448839662,0.559071730,0.517932489,0.452531646,0.737341772,0.421413502,0.589662447,0.559599156,0.568037975,0.705696203,0.385548523,0.707278481,0.517405063,0.587552743,0.641877637,0.404535865,0.564873418,0.430379747,0.509493671,0.520042194,0.417194093,0.659282700,0.371308017,0.501054852,0.523206751,0.452004219,0.620253165,0.427742616,0.618670886,0.438818565,0.476793249,0.613396624,0.438818565,0.616561181,0.518459916,0.249472574,0.237341772,0.611286920,0.378691983,0.653481013,0.460443038,0.495253165,0.578059072,0.411919831,0.651898734,0.431962025,0.489978903,0.510021097,0.445147679,0.648206751,0.408227848,0.581751055,0.472573840,0.475738397,0.450949367,0.583333333,10
0.791666667,0.639240506,0.712025316,0.611814346,0.609704641,0.612869198,0.581223629,0.707805907,0.598101266,0.907172996,0.605485232,0.873417722,0.622362869,0.693037975,0.665611814,0.690928270,0.803797468,0.560126582,0.816455696,0.527426160,0.608649789,0.589135021,0.622890295,0.613396624,0.555379747,0.747362869,0.470991561,0.663502110,0.632911392,0.628691983,0.593881857,0.622362869,0.717827004,0.665084388,0.625000000,0.542721519,0.637130802,0.446729958,0.598628692,0.485759494,0.532172996,0.570147679,0.494198312,0.458333333,0.458860759,0.489451477,0.486814346,0.619725738,0.555907173,0.496835443,0.520042194,0.448312236,0.570675105,0.382911392,0.558016878,0.483122363,0.603375527,0.582278481,0.514767932,0.536919831,0.444092827,0.654008439,0.474156118,0.664029536,0.555379747,0.622890295,0.569620253,0.539029536,0.634493671,0.457278481,0.579113924,0.473101266,0.599683544,0.539556962,0.499472574,0.492088608,0.460443038,0.600210970,0.371308017,0.291666667,12
0.541666667,0.598628692,0.565928270,0.001054852,0.225210970,0.541666667,0.814345992,0.278481013,0.000000000,0.308016878,0.208860759,0.246835443,0.554324895,0.722046414,0.726265823,0.031645570,0.132911392,0.405063291,0.265295359,0.686181435,0.199894515,0.575949367,0.325421941,0.555379747,0.448839662,0.242088608,0.042721519,0.434862869,0.494725738,0.105485232,0.407700422,0.502109705,0.372362869,0.488396624,0.277426160,0.607594937,0.386075949,0.474683544,0.419831224,0.290084388,0.401898734,0.254219409,0.539029536,0.690400844,0.432489451,0.754219409,0.264240506,0.578059072,0.364978903,0.415611814,0.363924051,0.411392405,0.850210970,0.569092827,0.401371308,0.532700422,0.435126582,0.431962025,0.446202532,0.381329114,0.498417722,0.392668776,0.361286920,0.390822785,0.552215190,0.208860759,0.550632911,0.196202532,0.594936709,0.378691983,0.599683544,0.361286920,0.385548523,0.381329114,0.670358650,0.717827004,0.469936709,0.342299578,0.596518987,0.291666667,10
0.708333333,0.506592827,0.409282700,0.766877637,0.579641350,0.587552743,0.610232068,0.570147679,0.704113924,0.546413502,0.723101266,0.641877637,0.395305907,0.662974684,0.357067511,0.690928270,0.556434599,0.531118143,0.585970464,0.614978903,0.570675105,0.572257384,0.623945148,0.354957806,0.805907173,0.467299578,0.700949367,0.980221519,0.969013713,0.669765295,0.484177215,0.712552743,0.595991561,0.516877637,0.547995781,0.407700422,0.697784810,0.436181435,0.850210970,0.315400844,0.852848101,0.362869198,0.813818565,0.518987342,0.703059072,0.570147679,0.773206751,0.559599156,0.245780591,0.353902954,0.092827004,0.582278481,0.468881857,0.902953586,0.353902954,0.247890295,0.603902954,0.665084388,0.697257384,0.214662447,0.389767932,0.587552743,0.777953586,0.482594937,0.626054852,0.432489451,0.866561181,0.200949367,0.200421941,0.563291139,0.407700422,0.355485232,0.524789030,0.730485232,0.570675105,0.681434599,0.543776371,0.529008439,0.118143460,0.333333333,18
0.500000000,0.525316456,0.565400844,0.504219409,0.581751055,0.626582278,0.059071730,0.492616034,0.838607595,0.295886076,0.439873418,0.472046414,0.869725738,0.349156118,0.713080169,0.574367089,0.695675105,0.700949367,0.569092827,0.827531646,0.392405063,0.738396624,0.461497890,0.564345992,0.658755274,0.525843882,0.774789030,0.467299578,0.768987342,0.552742616,0.642932489,0.635548523,0.457278481,0.662974684,0.443565401,0.607067511,0.501054852,0.549050633,0.632383966,0.361814346,0.635021097,0.335443038,0.498417722,0.491033755,0.438818565,0.681434599,0.256329114,0.739451477,0.550105485,0.653481013,0.622890295,0.511603376,0.641350211,0.354430380,0.682489451,0.564345992,0.516877637,0.647151899,0.402426160,0.732594937,0.371308017,0.578059072,0.402953586,0.428797468,0.615506329,0.344409283,0.862341772,0.456223629,0.668776371,0.473628692,0.414029536,0.618670886,0.200949367,0.664029536,0.338607595,0.619198312,0.598101266,0.430907173,0.645042194,0.208333333,2
0.458333333,0.409810127,0.483649789,0.456751055,0.520569620,0.362341772,0.412974684,0.373945148,0.328586498,0.047468354,0.886075949,0.472046414,0.339662447,0.533755274,0.260548523,0.514767932,0.296413502,0.530590717,0.292194093,0.526898734,0.331751055,0.498417722,0.380274262,0.516350211,0.362341772,0.483122363,0.309599156,0.337552743,0.483122363,0.327004219,0.613924051,0.225738397,0.435654008,0.267405063,0.473628692,0.921413502,0.272151899,0.436181435,0.369725738,0.469936709,0.258966245,0.453059072,0.362341772,0.356012658,0.382911392,0.357067511,0.441983122,0.252109705,0.459388186,0.272151899,0.435126582,0.216772152,0.442510549,0.214135021,0.471518987,0.250000000,0.495780591,0.303270042,0.487341772,0.275316456,0.455696203,0.415611814,0.366033755,0.425105485,0.370780591,0.501054852,0.301687764,0.500000000,0.266350211,0.396624473,0.281645570,0.383966245,0.209388186,0.506856540,0.246308017,0.418776371,0.680907173,0.363396624,0.481540084,0.416666667,10
0.541666667,0.573312236,0.518987342,0.818037975,0.545886076,0.797468354,0.713080169,0.543776371,0.860232068,0.465717300,0.628691983,0.702004219,0.390822785,0.694620253,0.594409283,0.508966245,0.258438819,0.467299578,0.467299578,0.307489451,0.579377637,0.501054852,0.197257384,0.102848101,0.455168776,0.402953586,0.229430380,0.333860759,0.724156118,0.387130802,0.225210970,0.385021097,0.324894515,0.279535865,0.738396624,0.354430380,0.282172996,0.269514768,0.555907173,0.411919831,0.666139241,0.533227848,0.422468354,0.799050633,0.339135021,0.358649789,0.333333333,0.333333333,0.358649789,0.668776371,0.560126582,0.337025316,0.159282700,0.524789030,0.484177215,0.718354430,0.414556962,0.594409283,0.703586498,0.367616034,0.357067511,0.402953586,0.333333333,0.452004219,0.467827004,0.624472574,0.640822785,0.469409283,0.693037975,0.645569620,0.518987342,0.333333333,0.278481013,0.385021097,0.411128692,0.293248945,0.136603376,0.309071730,0.707805907,0.416666667,14
0.458333333,0.688291139,0.612341772,0.473101266,0.597573840,0.412974684,0.425105485,0.627637131,0.554852321,0.255274262,0.695147679,0.296413502,0.432489451,0.286919831,0.321729958,0.541139241,0.845991561,0.305907173,0.299050633,0.339662447,0.682489451,0.563291139,0.305907173,0.266350211,0.367088608,0.181434599,0.429852321,0.605485232,0.402953586,0.717827004,0.518987342,0.430379747,0.624472574,0.517932489,0.401898734,0.718354430,0.251582278,0.361286920,0.331223629,0.321202532,0.403481013,0.131329114,0.380274262,0.544831224,0.400316456,0.649789030,0.588607595,0.354957806,0.232067511,0.291139241,0.250000000,0.285864979,0.458860759,0.418776371,0.830696203,0.560654008,0.472573840,0.811181435,0.279535865,0.361286920,0.333860759,0.690400844,0.199894515,0.549050633,0.532172996,0.536392405,0.854957806,0.467827004,0.573839662,0.681434599,0.438291139,0.537974684,0.282700422,0.324894515,0.267405063,0.352848101,0.362869198,0.671940928,0.221518987,0.250000000,8
0.416666667,0.488396624,0.398206751,0.330168776,0.504219409,0.877637131,1.000000000,0.758702532,0.299050633,0.513713080,0.466244726,0.387130802,0.453586498,0.406118143,0.447257384,0.466244726,0.339662447,0.420358650,0.472573840,0.347046414,0.525843882,0.370780591,0.422995781,0.539029536,0.236814346,0.487341772,0.388713080,0.284282700,0.515822785,0.378164557,0.451476793,0.722046414,0.333860759,0.516350211,0.597046414,0.372890295,0.623945148,0.398734177,0.454113924,0.556962025,0.292194093,0.472573840,0.502637131,0.292721519,0.590189873,0.473101266,0.409810127,0.591244726,0.271624473,0.565928270,0.383175105,0.713080169,0.394514768,0.655590717,0.571202532,0.284810127,0.573312236,0.405063291,0.329113924,0.562236287,0.344936709,0.510021097,0.614451477,0.396097046,0.640295359,0.417194093,0.400843882,0.652426160,0.387130802,0.446729958,0.441983122,0.256329114,0.484704641,0.452004219,0.349683544,0.579113924,0.393459916,0.418776371,0.530063291,0.333333333,0
0.958333333,0.958333333,0.972573840,1.000000000,1.000000000,1.000000000,1.000000000,1.000000000,1.000000000,1.000000000,1.000000000,1.000000000,0.997618341,0.966061363,0.824268196,0.603902954,0.380274262,0.224156118,0.177215190,0.638449367,0.890822785,1.000000000,1.000000000,1.000000000,1.000000000,1.000000000,1.000000000,1.000000000,1.000000000,1.000000000,1.000000000,1.000000000,1.000000000,1.000000000,1.000000000,1.000000000,1.000000000,1.000000000,1.000000000,1.000000000,1.000000000,1.000000000,1.000000000,1.000000000,0.886520931,0.672545485,0.288119797,0.584915612,0.857594937,0.661919831,0.466244726,0.440928270,0.776371308,0.682489451,0.500791139,0.319092827,0.623945148,0.905063291,0.988924051,1.000000000,1.000000000,1.000000000,1.000000000,1.000000000,1.000000000,1.000000000,1.000000000,1.000000000,1.000000000,1.000000000,1.000000000,1.000000000,1.000000000,1.000000000,1.000000000,1.000000000,1.000000000,1.000000000,1.000000000,1.000000000,10
0.916666667,0.823839662,0.695675105,0.653481013,0.661392405,0.584915612,0.677742616,0.453059072,0.273734177,0.493143460,0.656645570,0.666666667,0.666666667,0.502109705,0.619725738,0.570675105,0.705168776,0.602320675,0.673523207,0.560126582,0.540084388,0.673523207,0.512130802,0.655063291,0.578586498,0.654008439,0.626054852,0.635548523,0.817510549,0.674578059,0.599683544,0.631856540,0.560126582,0.644514768,0.614451477,0.502109705,0.661392405,0.581223629,0.800105485,0.472573840,0.583333333,0.602320675,0.718354430,0.627637131,0.650316456,0.545358650,0.522679325,0.517405063,0.463607595,0.585443038,0.434071730,0.666139241,0.550105485,0.383438819,0.674578059,0.426687764,0.619198312,0.417457806,0.527953586,0.614451477,0.565400844,0.512658228,0.640822785,0.422995781,0.763713080,0.404008439,0.705696203,0.518459916,0.694620253,0.645042194,0.616033755,0.563818565,0.616033755,0.643459916,0.574894515,0.648734177,0.556962025,0.747362869,0.329641350,0.666666667,14
0.375000000,0.323312236,0.410864979,0.380801688,0.669831224,0.888449367,0.836497890,0.709388186,0.368670886,0.296940928,0.670358650,0.014767932,0.329113924,0.652426160,0.486814346,0.140295359,0.470991561,0.753691983,0.555379747,0.255801688,0.556962025,0.214135021,0.321202532,0.550105485,0.383438819,0.249472574,0.760021097,0.760021097,0.594409283,0.497362869,0.784810127,0.815400844,0.910337553,0.811181435,0.522151899,0.545886076,0.395042194,0.657172996,0.381329114,0.556434599,0.506856540,0.363396624,0.575949367,0.388185654,0.548523207,0.514767932,0.360759494,0.712025316,0.376054852,0.619725738,0.540084388,0.353375527,0.608649789,0.239978903,0.613396624,0.499472574,0.418248945,0.627109705,0.337025316,0.565928270,0.464135021,0.424050633,0.571729958,0.426160338,0.539029536,0.377109705,0.364451477,0.539029536,0.514767932,0.371308017,0.599156118,0.413502110,0.416139241,0.518459916,0.968354430,0.435126582,0.535337553,0.494198312,0.237869198,0.500000000,4
0.625000000,0.466772152,0.720464135,0.467299578,0.715717300,0.604957806,0.251582278,0.232594937,0.316455696,0.628164557,0.648734177,0.268987342,0.246835443,0.428797468,0.449367089,0.773206751,0.583333333,0.565928270,0.473101266,0.617088608,0.419303797,0.728902954,0.528481013,0.674050633,0.381329114,0.628164557,0.878164557,0.772679325,0.525448312,0.571729958,0.568037975,0.560126582,0.844936709,1.000000000,0.927478903,0.656513713,0.441455696,0.686708861,0.291139241,0.794831224,0.913502110,0.993670886,1.000000000,1.000000000,1.000000000,1.000000000,1.000000000,1.000000000,1.000000000,1.000000000,1.000000000,1.000000000,1.000000000,1.000000000,1.000000000,0.847573840,0.339662447,0.585706751,0.605485232,0.620253165,0.264240506,0.363924051,0.661919831,0.337025316,0.439873418,0.411392405,0.539556962,0.561708861,0.462816456,0.522151899,0.492088608,0.417721519,0.659810127,0.792721519,0.535601266,0.392405063,0.659810127,0.827795359,0.580564346,0.333333333,16
0.500000000,0.766350211,0.600738397,0.706751055,0.619198312,0.705696203,0.753164557,0.591772152,0.694620253,0.484177215,0.911919831,0.570147679,0.728902954,0.631856540,0.760021097,0.693037975,0.549050633,0.795886076,0.512658228,0.878691983,0.333860759,0.356803797,0.375000000,0.375000000,0.626054852,0.758966245,0.820675105,0.499472574,0.751054852,0.325949367,0.780590717,0.558016878,0.776371308,0.532700422,0.658227848,0.696202532,0.569620253,0.644514768,0.431962025,0.968354430,0.435126582,0.101265823,0.613924051,0.295886076,0.360759494,0.606012658,0.321202532,0.408227848,0.458333333,0.979430380,0.448312236,0.841244726,0.502637131,0.579113924,0.597573840,0.470991561,0.627109705,0.502109705,0.707805907,0.384493671,0.721518987,0.456223629,0.694092827,0.507383966,0.551160338,0.631329114,0.476265823,0.618670886,0.449894515,0.869198312,0.328586498,0.637130802,0.418248945,0.526898734,0.498417722,0.451476793,0.623417722,0.450949367,0.262658228,0.333333333,20
0.333333333,0.738924051,0.491033755,0.643459916,0.586497890,0.490506329,0.608122363,0.302215190,0.827531646,0.433016878,0.647679325,0.462552743,0.510548523,0.492088608,0.399789030,0.670358650,0.345991561,0.763713080,0.491033755,0.572257384,0.515822785,0.448312236,0.585970464,0.324894515,0.734177215,0.429324895,0.734704641,0.309071730,0.401371308,0.346518987,0.623945148,0.323312236,0.726793249,0.372890295,0.686708861,0.452004219,0.518987342,0.410337553,0.595464135,0.315400844,0.681962025,0.402426160,0.782700422,0.454113924,0.600210970,0.485232068,0.676160338,0.275316456,0.753691983,0.401371308,0.641350211,0.515822785,0.542194093,0.569620253,0.353375527,0.732594937,0.263713080,0.707805907,0.449367089,0.579641350,0.539556962,0.347573840,0.738396624,0.345991561,0.678797468,0.530590717,0.709915612,0.533755274,0.471518987,0.597573840,0.313818565,0.579113924,0.223628692,0.736814346,0.973628692,0.820015823,0.370516878,0.612869198,0.768196203,0.791666667,0
0.458333333,0.853375527,0.588607595,0.715717300,0.751582278,0.516877637,0.796413502,0.411919831,0.859704641,0.668248945,0.655590717,0.626582278,0.475738397,0.822784810,0.433016878,0.740506329,0.625527426,0.500527426,0.628164557,0.306962025,0.695675105,0.422468354,0.525316456,0.456751055,0.475738397,0.715717300,0.237869198,0.670358650,0.407172996,0.473101266,0.482067511,0.459915612,0.554324895,0.338080169,0.646624473,0.465189873,0.554852321,0.591772152,0.492616034,0.570675105,0.400316456,0.632383966,0.469936709,0.469936709,0.646624473,0.373945148,0.620780591,0.368143460,0.595464135,0.366561181,0.512658228,0.459915612,0.820147679,0.360759494,0.748417722,0.427215190,0.517932489,0.648206751,0.428270042,0.734177215,0.445147679,0.589135021,0.583860759,0.518987342,0.670886076,0.433016878,0.739451477,0.407172996,0.612869198,0.533755274,0.512658228,0.669303797,0.359704641,0.671413502,0.401898734,0.553797468,0.454113924,0.450949367,0.693037975,0.250000000,10
0.166666667,0.599156118,0.060126582,0.239978903,0.405590717,0.241033755,0.625000000,0.217827004,0.551687764,0.217299578,0.079113924,0.497362869,0.379219409,0.439873418,0.412447257,0.530063291,0.247890295,0.577004219,0.453059072,0.554324895,0.357067511,0.437236287,0.318565401,0.441455696,0.268459916,0.310654008,0.397151899,0.392405063,0.347573840,0.385548523,0.297995781,0.459915612,0.746835443,0.276371308,0.439345992,0.370780591,0.400316456,0.376054852,0.573839662,0.361286920,0.391877637,0.308016878,0.348101266,0.387658228,0.360232068,0.439345992,0.412447257,0.372362869,0.286919831,0.297995781,0.396097046,0.283227848,0.251054852,0.399789030,0.171940928,0.178270042,0.266877637,0.418776371,0.443565401,0.475210970,0.782700422,0.167194093,0.612341772,0.565928270,0.386603376,0.365506329,0.496308017,0.637658228,0.250000000,0.405590717,0.291666667,0.395569620,0.724156118,0.275843882,0.400316456,0.286392405,0.349156118,0.320675105,0.528481013,0.791666667,10
0.250000000,0.781645570,0.319092827,0.697784810,0.525316456,0.658227848,0.897151899,0.859177215,0.724156118,0.449894515,0.411919831,0.386603376,0.804324895,0.974683544,1.000000000,0.870714662,0.555577532,0.621835443,0.807489451,0.576476793,0.272679325,0.214135021,0.258438819,0.410337553,0.562236287,0.714135021,0.575949367,0.436708861,0.341772152,0.219936709,0.267405063,0.573312236,0.625527426,0.451476793,0.869198312,0.500527426,0.795886076,0.829905063,0.772943038,0.568565401,0.616033755,0.750922996,0.494593882,0.402426160,0.824367089,0.372890295,0.220991561,0.382383966,0.354430380,0.662447257,0.785864979,0.709915612,0.552215190,0.375000000,0.375000000,0.343354430,0.139240506,0.481012658,0.822784810,0.826740506,0.769778481,0.576476793,0.700949367,0.793908228,0.480617089,0.400316456,0.893987342,1.000000000,1.000000000,0.792325949,0.354430380,0.722573840,0.968354430,0.850474684,0.529535865,0.203059072,0.196729958,0.621308017,0.602320675,0.583333333,10
0.583333333,0.121835443,0.102320675,0.303270042,0.599683544,0.636603376,0.734704641,0.445147679,0.401898734,0.528481013,0.415084388,0.653481013,0.556434599,0.665084388,0.351793249,0.625000000,0.625000000,0.600738397,0.587552743,0.795886076,0.612341772,0.489978903,0.513185654,0.520569620,0.644514768,0.329641350,0.616561181,0.352320675,0.697784810,0.616561181,0.571729958,0.585970464,0.612869198,0.731540084,0.698312236,0.623945148,0.544303797,0.601265823,0.440400844,0.577004219,0.349156118,0.754746835,0.767932489,0.566983122,0.462552743,0.617616034,0.539556962,0.565928270,0.646624473,0.569620253,0.699367089,0.422468354,0.810126582,0.304324895,0.812763713,0.944620253,0.597837553,0.429324895,0.473101266,0.430379747,0.532172996,0.352848101,0.616561181,0.946202532,1.000000000,1.000000000,0.676819620,0.283227848,0.590717300,0.516877637,0.688291139,0.489451477,0.773997890,0.901503165,0.912710970,0.699103376,0.362869198,0.185654008,0.089662447,0.000000000,4
0.541666667,0.683016878,0.687763713,0.364451477,0.347573840,0.445147679,0.853902954,0.748417722,0.513185654,0.746308017,0.238924051,0.611814346,0.332805907,0.385548523,0.339662447,0.756329114,0.807489451,0.383438819,0.597573840,0.110759494,0.644514768,0.398206751,0.341772152,0.463607595,0.705168776,0.852848101,0.296149789,0.324367089,0.294831224,0.500000000,0.447257384,0.334388186,0.704113924,0.636075949,0.023206751,0.593354430,0.411919831,0.282172996,0.110759494,0.342827004,0.237869198,0.330696203,0.808544304,0.303270042,0.357067511,0.300105485,0.354957806,0.362869198,0.293248945,0.370780591,0.261603376,0.490506329,0.303270042,0.469936709,0.357594937,0.373417722,0.323312236,0.300105485,0.310126582,0.291666667,0.466772152,0.297468354,0.453059072,0.250000000,0.363924051,0.447257384,0.199367089,0.063291139,0.342299578,0.582805907,0.738396624,0.305907173,0.318037975,0.312763713,0.306962025,0.330168776,0.247362869,0.168248945,0.697784810,0.375000000,22
0.791666667,0.819092827,0.670358650,0.227320675,0.128164557,0.754219409,0.628691983,0.939345992,0.780590717,0.506329114,0.494725738,0.684599156,0.748945148,0.543776371,0.231540084,0.666666667,0.666666667,0.866033755,0.716244726,0.431962025,0.371308017,0.495780591,0.653481013,0.711497890,0.112869198,0.629746835,0.504219409,0.360232068,0.556434599,0.233122363,0.088607595,0.558544304,0.531118143,0.346518987,0.700421941,0.729957806,0.672995781,0.112869198,0.311181435,0.243670886,0.825949367,0.533227848,0.412974684,0.589662447,0.686708861,0.648734177,0.761075949,0.835970464,0.754219409,0.752637131,0.829641350,0.762130802,0.574367089,0.215717300,0.558544304,0.523206751,0.796940928,0.477320675,0.463080169,0.112869198,0.125000000,0.567510549,0.225738397,0.534810127,0.533755274,0.271624473,0.566983122,0.588607595,0.736286920,0.411392405,0.444620253,0.625000000,0.271624473,0.622890295,0.391877637,0.339662447,0.875527426,0.553270042,0.131329114,0.458333333,6
0.375000000,0.792721519,0.387658228,0.781118143,0.501054852,0.528481013,0.535337553,0.513185654,0.729430380,0.459388186,0.729957806,0.266877637,0.874472574,0.386603376,0.829641350,0.496835443,0.589662447,0.565928270,0.578586498,0.828586498,0.553270042,0.793776371,0.289556962,0.251582278,0.395569620,0.285864979,0.685126582,0.469936709,0.597573840,0.671413502,0.491033755,0.737869198,0.422468354,0.830696203,0.299050633,0.778481013,0.968354430,1.000000000,0.838475738,0.475474684,0.534810127,0.752637131,0.448839662,0.232067511,0.337552743,0.380010549,0.740770042,0.553270042,0.315928270,0.633966245,0.548523207,0.573839662,0.898734177,1.000000000,1.000000000,1.000000000,1.000000000,1.000000000,1.000000000,0.826316093,0.444640856,0.613924051,0.516877637,0.382383966,0.563291139,0.392405063,0.313291139,0.685126582,0.950949367,0.995253165,1.000000000,0.867088608,0.566983122,0.638185654,0.907172996,0.889240506,0.582278481,0.380274262,0.791666667,0.791666667,10
0.750000000,0.544040084,0.338080169,0.494725738,0.360232068,0.372890295,0.459915612,0.430379747,0.722046414,0.895569620,0.258966245,0.508438819,0.345464135,0.405590717,0.337025316,0.290084388,0.467827004,0.765822785,0.974287975,1.000000000,1.000000000,1.000000000,0.851702598,0.517487474,0.517405063,0.566455696,0.454113924,0.463607595,0.639767932,0.325949367,0.812763713,0.367088608,0.639767932,0.475738397,0.635021097,0.609177215,0.454113924,0.665611814,0.448312236,0.616561181,0.466772152,0.316983122,0.571729958,0.397679325,0.476793249,0.500527426,0.419831224,0.696729958,0.809071730,0.919831224,0.994725738,1.000000000,1.000000000,0.927478903,0.746967300,0.768459916,0.972046414,1.000000000,0.955168776,0.633702532,0.203059072,0.646624473,0.389240506,0.560126582,0.858122363,0.967035865,0.985759494,0.973101266,0.884493671,0.958860759,0.996308017,1.000000000,1.000000000,1.000000000,1.000000000,0.889767932,0.595348761,0.384493671,0.741561181,0.666666667,8
0.875000000,0.616561181,0.799050633,0.598628692,0.556434599,0.564873418,0.679852321,0.832805907,0.457278481,0.663502110,0.559071730,0.656118143,0.670886076,0.569620253,0.598101266,0.513713080,0.622362869,0.354430380,0.651898734,0.429852321,0.661919831,0.590717300,0.561181435,0.613396624,0.524789030,0.811708861,0.514240506,0.808016878,0.555379747,0.677742616,0.608122363,0.653481013,0.700421941,0.548523207,0.822257384,0.463607595,0.683016878,0.503164557,0.611814346,0.629219409,0.559599156,0.654535865,0.497362869,0.678797468,0.419303797,0.593354430,0.465189873,0.631856540,0.553270042,0.538502110,0.561708861,0.456223629,0.686181435,0.426160338,0.628691983,0.483122363,0.619198312,0.603375527,0.540084388,0.638713080,0.464662447,0.930907173,0.320675105,0.690928270,0.550105485,0.706223629,0.631329114,0.527953586,0.561708861,0.409810127,0.618670886,0.313818565,0.499472574,0.412447257,0.457805907,0.473101266,0.405590717,0.549050633,0.440400844,0.666666667,12
0.333333333,0.462552743,0.564873418,0.480485232,0.407172996,0.449367089,0.589135021,0.577531646,0.421940928,0.396097046,0.435654008,0.620253165,0.488396624,0.278481013,0.469936709,0.465717300,0.557489451,0.334388186,0.350738397,0.580168776,0.591772152,0.435126582,0.340717300,0.493670886,0.609177215,0.526898734,0.383966245,0.405590717,0.566455696,0.544303797,0.400843882,0.344409283,0.426687764,0.649261603,0.501582278,0.302215190,0.376054852,0.584388186,0.447257384,0.367616034,0.367616034,0.561181435,0.584388186,0.368143460,0.304324895,0.356540084,0.606012658,0.367616034,0.208333333,0.068565401,0.026898734,0.156645570,0.137658228,0.131329114,0.150316456,0.164029536,0.145042194,0.165611814,0.125000000,0.129746835,0.166666667,0.158227848,0.156118143,0.361286920,0.020569620,0.166666667,0.282172996,0.394514768,0.375000000,0.398206751,0.016877637,0.301160338,0.335443038,0.136075949,0.155063291,0.364978903,0.102848101,0.018459916,0.208333333,0.666666667,10
0.083333333,0.496308017,0.760548523,0.495253165,0.767405063,0.288502110,0.414029536,0.479430380,0.571202532,0.714135021,0.469409283,0.636075949,0.712552743,0.400316456,0.810654008,0.653481013,0.444620253,0.813291139,0.675632911,0.521097046,0.881856540,0.616561181,0.476265823,0.785337553,0.518987342,0.542721519,0.233649789,0.483122363,0.311181435,0.410864979,0.503691983,0.347573840,0.511603376,0.216772152,0.486814346,0.243143460,0.478902954,0.401898734,0.455168776,0.773734177,0.373945148,0.605485232,0.238396624,0.424578059,0.373417722,0.306962025,0.335443038,0.680379747,0.645569620,0.380801688,0.222046414,0.396624473,0.698839662,0.395569620,0.326476793,0.470464135,0.212552743,0.488924051,0.194092827,0.352848101,0.446729958,0.346518987,0.472046414,0.213080169,0.481540084,0.209388186,0.493670886,0.493143460,0.461497890,0.293248945,0.480485232,0.280590717,0.374472574,0.284282700,0.370253165,0.467299578,0.158227848,0.336497890,0.228375527,0.416666667,8
0.750000000,0.455168776,0.588080169,0.758966245,0.393987342,0.781645570,0.471518987,0.465189873,0.641350211,0.429852321,0.573312236,0.590189873,0.339135021,0.749472574,0.351265823,0.343881857,0.387658228,0.762130802,0.568037975,0.506856540,0.595464135,0.393987342,0.640822785,0.596518987,0.405590717,0.784810127,0.366033755,0.502637131,0.505801688,0.420886076,0.464135021,0.485232068,0.434599156,0.762658228,0.414556962,0.600210970,0.223628692,0.353902954,0.277953586,0.518459916,0.466772152,0.373945148,0.624472574,0.420886076,0.483122363,0.531645570,0.432489451,0.565400844,0.469409283,0.289029536,0.574894515,0.316455696,0.415611814,0.488924051,0.253691983,0.590717300,0.489451477,0.371308017,0.645569620,0.339135021,0.487869198,0.556434599,0.359177215,0.574367089,0.438818565,0.534810127,0.676687764,0.449894515,0.575421941,0.531645570,0.422995781,0.570675105,0.443037975,0.453586498,0.649261603,0.422995781,0.502109705,0.507911392,0.360232068,0.791666667,8
0.708333333,0.784282700,0.791666667,0.791666667,0.791666667,0.768459916,0.730485232,0.755801688,0.845464135,0.723101266,0.162974684,0.466772152,0.770569620,0.226265823,0.283227848,0.193565401,0.270569620,0.601265823,0.816455696,0.738924051,0.653481013,0.761603376,0.837552743,0.913502110,0.916666667,0.949367089,0.958333333,0.958333333,0.936708861,0.827004219,0.751054852,0.791139241,0.694092827,0.827004219,0.751054852,0.824894515,0.968354430,0.969936709,0.852848101,0.859704641,0.878691983,0.863924051,0.905063291,0.867088608,0.829113924,0.791666667,0.791666667,0.791666667,0.853902954,0.820147679,0.862869198,0.916666667,0.916666667,0.891350211,0.833333333,0.849156118,0.950421941,0.760548523,0.893459916,0.820147679,0.791666667,0.816455696,0.812236287,0.826476793,0.833860759,0.780063291,0.881329114,0.919303797,0.957278481,0.810654008,0.758438819,0.779535865,0.765822785,0.750000000,0.639240506,0.337552743,0.263185654,0.875000000,0.878691983,0.916666667,6
0.416666667,0.583333333,0.583333333,0.574894515,0.480485232,0.632383966,0.458860759,0.577531646,0.541666667,0.500000000,0.472046414,0.418248945,0.508966245,0.422468354,0.565928270,0.500527426,0.396097046,0.478375527,0.491033755,0.377109705,0.513185654,0.576476793,0.544831224,0.509493671,0.484177215,0.411919831,0.447257384,0.561181435,0.463080169,0.475738397,0.539556962,0.454113924,0.396624473,0.522679325,0.455168776,0.364978903,0.528217300,0.442774262,0.495780591,0.491033755,0.348628692,0.416666667,0.434071730,0.425632911,0.510021097,0.441455696,0.467827004,0.447784810,0.442510549,0.334915612,0.428797468,0.465189873,0.496308017,0.420358650,0.477848101,0.289556962,0.388713080,0.448839662,0.310654008,0.403481013,0.659282700,0.473101266,0.435126582,0.556962025,0.375000000,0.088080169,0.231012658,0.216244726,0.129746835,0.415084388,0.318565401,0.278481013,0.137130802,0.241561181,0.277953586,0.186181435,0.166666667,0.241561181,0.122362869,0.166666667,8
0.916666667,0.916666667,0.916666667,0.905327004,0.887658228,0.895042194,0.950949367,0.880274262,0.842299578,0.899261603,0.932489451,0.923655063,0.783755274,0.174050633,0.421413502,0.789029536,0.869198312,0.902953586,0.944620253,0.786919831,0.751582278,0.783755274,0.544831224,0.311181435,0.149261603,0.142932489,0.556434599,0.803797468,0.926687764,0.908755274,0.764240506,0.515822785,0.255801688,0.291139241,0.744198312,0.833333333,0.877637131,0.900843882,0.780063291,0.423523207,0.034810127,0.032172996,0.274261603,0.631329114,0.875000000,0.881856540,0.914556962,0.773206751,0.809071730,0.902953586,0.975210970,0.989451477,0.960443038,0.978111814,0.995780591,1.000000000,1.000000000,1.000000000,1.000000000,0.998417722,0.963080169,0.958333333,0.934071730,0.916666667,0.939873418,0.989451477,0.918776371,0.985232068,0.958069620,0.905063291,0.913238397,0.983649789,1.000000000,1.000000000,1.000000000,1.000000000,0.994956487,0.966978178,0.916666667,0.916666667,18
0.791666667,0.552215190,0.603902954,0.620780591,0.602320675,0.642932489,0.528481013,0.716772152,0.337552743,0.620253165,0.399789030,0.517932489,0.568037975,0.600738397,0.412974684,0.075421941,0.535337553,0.266350211,0.183016878,0.367088608,0.571729958,0.434071730,0.291666667,0.481540084,0.413502110,0.395042194,0.623417722,0.503691983,0.511603376,0.668248945,0.459388186,0.644514768,0.310654008,0.585443038,0.360232068,0.546940928,0.518987342,0.438818565,0.637130802,0.435126582,0.606540084,0.412447257,0.657700422,0.606012658,0.554324895,0.200949367,0.364978903,0.337552743,0.731012658,0.550632911,0.667721519,0.537974684,0.462025316,0.522679325,0.409282700,0.655590717,0.351793249,0.514767932,0.373945148,0.467299578,0.840189873,0.853111814,0.688818565,0.463607595,0.678797468,0.483122363,0.619725738,0.438291139,0.391350211,0.527953586,0.493670886,0.376318565,0.810654008,0.883175105,0.531118143,0.477320675,0.469936709,0.530590717,0.474156118,0.708333333,2
0.833333333,0.418776371,0.581223629,0.514240506,0.860232068,0.578059072,0.493670886,0.422204641,0.485495781,0.584388186,0.863924051,0.488396624,0.397679325,0.332805907,0.537974684,0.516877637,0.592827004,0.859704641,0.575949367,0.753164557,0.616033755,0.825421941,0.574367089,0.777953586,0.535337553,0.514240506,0.650843882,0.787447257,0.606012658,0.722046414,0.632383966,0.753164557,0.415611814,0.309071730,0.422995781,0.744725738,0.753164557,0.653481013,0.714662447,0.726793249,0.726793249,0.736286920,0.717299578,0.723101266,0.666139241,0.689873418,0.614978903,0.631856540,0.522151899,0.736814346,0.668248945,0.688291139,0.599683544,0.723628692,0.548523207,0.648734177,0.631856540,0.703586498,0.597046414,0.697257384,0.560126582,0.789556962,0.580696203,0.799050633,0.571202532,0.774261603,0.520042194,0.811708861,0.552215190,0.863924051,0.436708861,0.861814346,0.422995781,0.798523207,0.521097046,0.816455696,0.432489451,0.863396624,0.422468354,1.000000000,24
